0.00000000E+00	1.06000000E+02
2.77777778E-03	3.35000000E+02
5.55555556E-03	2.28000000E+02
8.33333333E-03	-2.27000000E+02
1.11111111E-02	-5.90000000E+01
1.38888889E-02	2.91000000E+02
1.66666667E-02	-3.92000000E+02
1.94444444E-02	-4.50000000E+01
2.22222222E-02	4.43000000E+02
2.50000000E-02	3.72000000E+02
2.77777778E-02	9.08000000E+02
3.05555556E-02	3.95000000E+02
3.33333333E-02	1.06000000E+02
3.61111111E-02	3.35000000E+02
3.88888889E-02	2.28000000E+02
4.16666667E-02	-2.27000000E+02
4.44444444E-02	-5.90000000E+01
4.72222222E-02	2.91000000E+02
5.00000000E-02	-3.92000000E+02
5.27777778E-02	-4.50000000E+01
5.55555556E-02	4.43000000E+02
5.83333333E-02	3.72000000E+02
6.11111111E-02	9.08000000E+02
6.38888889E-02	3.95000000E+02
6.66666667E-02	1.06000000E+02
6.94444444E-02	3.25000000E+02
7.22222222E-02	2.19000000E+02
7.50000000E-02	-2.19000000E+02
7.77777778E-02	-6.00000000E+01
8.05555556E-02	2.84000000E+02
8.33333333E-02	4.92000000E+02
8.61111111E-02	8.37000000E+02
8.88888889E-02	2.39000000E+02
9.16666667E-02	3.72000000E+02
9.44444444E-02	9.08000000E+02
9.72222222E-02	4.05000000E+02
1.00000000E-01	8.60000000E+01
1.02777778E-01	3.06000000E+02
1.05555556E-01	2.19000000E+02
1.08333333E-01	-2.14000000E+02
1.11111111E-01	-5.50000000E+01
1.13888889E-01	2.74000000E+02
1.16666667E-01	4.87000000E+02
1.19444444E-01	8.32000000E+02
1.22222222E-01	2.40000000E+02
1.25000000E-01	4.04000000E+02
1.27777778E-01	1.79000000E+02
1.30555556E-01	-6.30000000E+01
1.33333333E-01	9.60000000E+01
1.36111111E-01	3.20000000E+02
1.38888889E-01	2.24000000E+02
1.41666667E-01	-1.95000000E+02
1.44444444E-01	-6.50000000E+01
1.47222222E-01	2.64000000E+02
1.50000000E-01	4.92000000E+02
1.52777778E-01	8.42000000E+02
1.55555556E-01	2.44000000E+02
1.58333333E-01	4.04000000E+02
1.61111111E-01	1.74000000E+02
1.63888889E-01	-6.20000000E+01
1.66666667E-01	1.06000000E+02
1.69444444E-01	3.25000000E+02
1.72222222E-01	2.19000000E+02
1.75000000E-01	-2.07000000E+02
1.77777778E-01	-6.20000000E+01
1.80555556E-01	2.74000000E+02
1.83333333E-01	4.92000000E+02
1.86111111E-01	8.32000000E+02
1.88888889E-01	2.35000000E+02
1.91666667E-01	4.14000000E+02
1.94444444E-01	1.89000000E+02
1.97222222E-01	-5.20000000E+01
2.00000000E-01	9.60000000E+01
2.02777778E-01	3.35000000E+02
2.05555556E-01	2.38000000E+02
2.08333333E-01	-2.14000000E+02
2.11111111E-01	-5.50000000E+01
2.13888889E-01	2.74000000E+02
2.16666667E-01	4.92000000E+02
2.19444444E-01	8.36000000E+02
2.22222222E-01	2.35000000E+02
2.25000000E-01	3.99000000E+02
2.27777778E-01	1.74000000E+02
2.30555556E-01	-6.70000000E+01
2.33333333E-01	9.60000000E+01
2.36111111E-01	3.25000000E+02
2.38888889E-01	2.28000000E+02
2.41666667E-01	-2.14000000E+02
2.44444444E-01	-7.00000000E+01
2.47222222E-01	2.88000000E+02
2.50000000E-01	4.92000000E+02
2.52777778E-01	8.31000000E+02
2.55555556E-01	2.30000000E+02
2.58333333E-01	3.99000000E+02
2.61111111E-01	1.74000000E+02
2.63888889E-01	-6.20000000E+01
2.66666667E-01	1.16000000E+02
2.69444444E-01	3.35000000E+02
2.72222222E-01	2.19000000E+02
2.75000000E-01	-2.09000000E+02
2.77777778E-01	-6.50000000E+01
2.80555556E-01	2.79000000E+02
2.83333333E-01	4.87000000E+02
2.86111111E-01	8.25000000E+02
2.88888889E-01	2.30000000E+02
2.91666667E-01	3.94000000E+02
2.94444444E-01	1.74000000E+02
2.97222222E-01	-6.70000000E+01
3.00000000E-01	1.01000000E+02
3.02777778E-01	3.35000000E+02
3.05555556E-01	2.33000000E+02
3.08333333E-01	-2.24000000E+02
3.11111111E-01	-5.00000000E+01
3.13888889E-01	2.79000000E+02
3.16666667E-01	4.92000000E+02
3.19444444E-01	8.35000000E+02
3.22222222E-01	2.40000000E+02
3.25000000E-01	3.94000000E+02
3.27777778E-01	1.64000000E+02
3.30555556E-01	-8.60000000E+01
3.33333333E-01	8.60000000E+01
3.36111111E-01	3.35000000E+02
3.38888889E-01	2.48000000E+02
3.41666667E-01	-2.17000000E+02
3.44444444E-01	-6.50000000E+01
3.47222222E-01	2.86000000E+02
3.50000000E-01	4.82000000E+02
3.52777778E-01	8.30000000E+02
3.55555556E-01	2.40000000E+02
3.58333333E-01	4.03000000E+02
3.61111111E-01	1.84000000E+02
3.63888889E-01	-5.60000000E+01
3.66666667E-01	1.06000000E+02
3.69444444E-01	3.40000000E+02
3.72222222E-01	2.33000000E+02
3.75000000E-01	-2.09000000E+02
3.77777778E-01	-7.90000000E+01
3.80555556E-01	2.93000000E+02
3.83333333E-01	4.82000000E+02
3.86111111E-01	8.25000000E+02
3.88888889E-01	2.35000000E+02
3.91666667E-01	4.03000000E+02
3.94444444E-01	1.74000000E+02
3.97222222E-01	-6.60000000E+01
4.00000000E-01	8.60000000E+01
4.02777778E-01	3.15000000E+02
4.05555556E-01	2.28000000E+02
4.08333333E-01	-2.22000000E+02
4.11111111E-01	-6.20000000E+01
4.13888889E-01	2.88000000E+02
4.16666667E-01	4.82000000E+02
4.19444444E-01	8.15000000E+02
4.22222222E-01	2.25000000E+02
4.25000000E-01	4.03000000E+02
4.27777778E-01	1.74000000E+02
4.30555556E-01	-7.10000000E+01
4.33333333E-01	7.70000000E+01
4.36111111E-01	2.96000000E+02
4.38888889E-01	2.19000000E+02
4.41666667E-01	-2.00000000E+02
4.44444444E-01	-7.00000000E+01
4.47222222E-01	2.74000000E+02
4.50000000E-01	4.77000000E+02
4.52777778E-01	8.25000000E+02
4.55555556E-01	2.35000000E+02
4.58333333E-01	3.97000000E+02
4.61111111E-01	1.74000000E+02
4.63888889E-01	-6.60000000E+01
4.66666667E-01	9.10000000E+01
4.69444444E-01	2.97000000E+02
4.72222222E-01	2.04000000E+02
4.75000000E-01	-1.85000000E+02
4.77777778E-01	-7.00000000E+01
4.80555556E-01	2.59000000E+02
4.83333333E-01	4.97000000E+02
4.86111111E-01	8.39000000E+02
4.88888889E-01	2.35000000E+02
4.91666667E-01	3.97000000E+02
4.94444444E-01	1.64000000E+02
4.97222222E-01	-7.50000000E+01
5.00000000E-01	9.60000000E+01
5.02777778E-01	3.02000000E+02
5.05555556E-01	2.04000000E+02
5.08333333E-01	-1.92000000E+02
5.11111111E-01	-5.50000000E+01
5.13888889E-01	2.52000000E+02
5.16666667E-01	4.92000000E+02
5.19444444E-01	8.29000000E+02
5.22222222E-01	2.25000000E+02
5.25000000E-01	3.97000000E+02
5.27777778E-01	1.69000000E+02
5.30555556E-01	-7.50000000E+01
5.33333333E-01	1.11000000E+02
5.36111111E-01	3.26000000E+02
5.38888889E-01	2.14000000E+02
5.41666667E-01	-1.97000000E+02
5.44444444E-01	-5.30000000E+01
5.47222222E-01	2.54000000E+02
5.50000000E-01	4.97000000E+02
5.52777778E-01	8.29000000E+02
5.55555556E-01	2.30000000E+02
5.58333333E-01	3.88000000E+02
5.61111111E-01	1.54000000E+02
5.63888889E-01	-8.50000000E+01
5.66666667E-01	1.06000000E+02
5.69444444E-01	3.26000000E+02
5.72222222E-01	2.19000000E+02
5.75000000E-01	-2.17000000E+02
5.77777778E-01	-5.00000000E+01
5.80555556E-01	2.71000000E+02
5.83333333E-01	4.97000000E+02
5.86111111E-01	8.33000000E+02
5.88888889E-01	2.35000000E+02
5.91666667E-01	3.88000000E+02
5.94444444E-01	1.55000000E+02
5.97222222E-01	-8.80000000E+01
6.00000000E-01	9.10000000E+01
6.02777778E-01	3.21000000E+02
6.05555556E-01	2.28000000E+02
6.08333333E-01	-2.14000000E+02
6.11111111E-01	-5.50000000E+01
6.13888889E-01	2.74000000E+02
6.16666667E-01	4.86000000E+02
6.19444444E-01	8.33000000E+02
6.22222222E-01	2.44000000E+02
6.25000000E-01	4.02000000E+02
6.27777778E-01	1.65000000E+02
6.30555556E-01	-8.30000000E+01
6.33333333E-01	9.60000000E+01
6.36111111E-01	3.21000000E+02
6.38888889E-01	2.24000000E+02
6.41666667E-01	-2.05000000E+02
6.44444444E-01	-6.70000000E+01
6.47222222E-01	2.76000000E+02
6.50000000E-01	4.86000000E+02
6.52777778E-01	8.37000000E+02
6.55555556E-01	2.44000000E+02
6.58333333E-01	4.07000000E+02
6.61111111E-01	1.75000000E+02
6.63888889E-01	-6.90000000E+01
6.66666667E-01	7.70000000E+01
6.69444444E-01	3.02000000E+02
6.72222222E-01	2.24000000E+02
6.75000000E-01	-2.07000000E+02
6.77777778E-01	-6.20000000E+01
6.80555556E-01	2.74000000E+02
6.83333333E-01	4.96000000E+02
6.86111111E-01	8.32000000E+02
6.88888889E-01	2.35000000E+02
6.91666667E-01	4.07000000E+02
6.94444444E-01	1.75000000E+02
6.97222222E-01	-6.90000000E+01
7.00000000E-01	8.10000000E+01
7.02777778E-01	2.98000000E+02
7.05555556E-01	2.14000000E+02
7.08333333E-01	-1.87000000E+02
7.11111111E-01	-7.20000000E+01
7.13888889E-01	2.64000000E+02
7.16666667E-01	4.86000000E+02
7.19444444E-01	8.22000000E+02
7.22222222E-01	2.15000000E+02
7.25000000E-01	3.92000000E+02
7.27777778E-01	1.65000000E+02
7.30555556E-01	-7.30000000E+01
7.33333333E-01	9.10000000E+01
7.36111111E-01	2.98000000E+02
7.38888889E-01	2.04000000E+02
7.41666667E-01	-1.87000000E+02
7.44444444E-01	-6.50000000E+01
7.47222222E-01	2.57000000E+02
7.50000000E-01	4.96000000E+02
7.52777778E-01	8.27000000E+02
7.55555556E-01	2.20000000E+02
7.58333333E-01	3.78000000E+02
7.61111111E-01	1.46000000E+02
7.63888889E-01	-8.30000000E+01
7.66666667E-01	1.01000000E+02
7.69444444E-01	3.17000000E+02
7.72222222E-01	2.14000000E+02
7.75000000E-01	-1.92000000E+02
7.77777778E-01	-5.50000000E+01
7.80555556E-01	2.53000000E+02
7.83333333E-01	4.96000000E+02
7.86111111E-01	8.32000000E+02
7.88888889E-01	2.30000000E+02
7.91666667E-01	3.77000000E+02
7.94444444E-01	1.51000000E+02
7.97222222E-01	-8.80000000E+01
8.00000000E-01	1.11000000E+02
8.02777778E-01	3.32000000E+02
8.05555556E-01	2.19000000E+02
8.08333333E-01	-2.07000000E+02
8.11111111E-01	-5.50000000E+01
8.13888889E-01	2.67000000E+02
8.16666667E-01	4.90000000E+02
8.19444444E-01	8.27000000E+02
8.22222222E-01	2.25000000E+02
8.25000000E-01	3.87000000E+02
8.27777778E-01	1.61000000E+02
8.30555556E-01	-7.70000000E+01
8.33333333E-01	1.06000000E+02
8.36111111E-01	3.42000000E+02
8.38888889E-01	2.34000000E+02
8.41666667E-01	-2.19000000E+02
8.44444444E-01	-5.30000000E+01
8.47222222E-01	2.77000000E+02
8.50000000E-01	5.00000000E+02
8.52777778E-01	8.36000000E+02
8.55555556E-01	2.35000000E+02
8.58333333E-01	3.82000000E+02
8.61111111E-01	1.56000000E+02
8.63888889E-01	-8.20000000E+01
8.66666667E-01	1.06000000E+02
8.69444444E-01	3.52000000E+02
8.72222222E-01	2.44000000E+02
8.75000000E-01	-2.22000000E+02
8.77777778E-01	-6.20000000E+01
8.80555556E-01	2.89000000E+02
8.83333333E-01	5.00000000E+02
8.86111111E-01	8.36000000E+02
8.88888889E-01	2.35000000E+02
8.91666667E-01	3.91000000E+02
8.94444444E-01	1.66000000E+02
8.97222222E-01	-7.20000000E+01
9.00000000E-01	9.60000000E+01
9.02777778E-01	3.52000000E+02
9.05555556E-01	2.54000000E+02
9.08333333E-01	-2.27000000E+02
9.11111111E-01	-6.70000000E+01
9.13888889E-01	2.99000000E+02
9.16666667E-01	5.00000000E+02
9.19444444E-01	8.31000000E+02
9.22222222E-01	2.30000000E+02
9.25000000E-01	3.91000000E+02
9.27777778E-01	1.66000000E+02
9.30555556E-01	-7.20000000E+01
9.33333333E-01	7.70000000E+01
9.36111111E-01	3.42000000E+02
9.38888889E-01	2.64000000E+02
9.41666667E-01	-2.22000000E+02
9.44444444E-01	-7.70000000E+01
9.47222222E-01	3.04000000E+02
9.50000000E-01	5.04000000E+02
9.52777778E-01	8.35000000E+02
9.55555556E-01	2.35000000E+02
9.58333333E-01	3.82000000E+02
9.61111111E-01	1.61000000E+02
9.63888889E-01	-7.20000000E+01
9.66666667E-01	7.20000000E+01
9.69444444E-01	3.42000000E+02
9.72222222E-01	2.68000000E+02
9.75000000E-01	-2.07000000E+02
9.77777778E-01	-9.20000000E+01
9.80555556E-01	3.04000000E+02
9.83333333E-01	5.14000000E+02
9.86111111E-01	8.40000000E+02
9.88888889E-01	2.44000000E+02
9.91666667E-01	3.90000000E+02
9.94444444E-01	1.66000000E+02
9.97222222E-01	-6.80000000E+01
1.00000000E+00	8.60000000E+01
1.00277778E+00	3.47000000E+02
1.00555556E+00	2.59000000E+02
1.00833333E+00	-2.05000000E+02
1.01111111E+00	-9.70000000E+01
1.01388889E+00	3.06000000E+02
1.01666667E+00	5.14000000E+02
1.01944444E+00	8.34000000E+02
1.02222222E+00	2.35000000E+02
1.02500000E+00	3.95000000E+02
1.02777778E+00	1.71000000E+02
1.03055556E+00	-6.80000000E+01
1.03333333E+00	8.10000000E+01
1.03611111E+00	3.47000000E+02
1.03888889E+00	2.64000000E+02
1.04166667E+00	-2.14000000E+02
1.04444444E+00	-8.40000000E+01
1.04722222E+00	3.05000000E+02
1.05000000E+00	5.19000000E+02
1.05277778E+00	8.34000000E+02
1.05555556E+00	2.30000000E+02
1.05833333E+00	3.86000000E+02
1.06111111E+00	1.56000000E+02
1.06388889E+00	-8.00000000E+01
1.06666667E+00	1.01000000E+02
1.06944444E+00	3.57000000E+02
1.07222222E+00	2.54000000E+02
1.07500000E+00	-2.12000000E+02
1.07777778E+00	-8.90000000E+01
1.08055556E+00	3.07000000E+02
1.08333333E+00	5.19000000E+02
1.08611111E+00	8.34000000E+02
1.08888889E+00	2.25000000E+02
1.09166667E+00	3.75000000E+02
1.09444444E+00	1.47000000E+02
1.09722222E+00	-9.00000000E+01
1.10000000E+00	1.16000000E+02
1.10277778E+00	3.61000000E+02
1.10555556E+00	2.45000000E+02
1.10833333E+00	-2.27000000E+02
1.11111111E+00	-7.50000000E+01
1.11388889E+00	3.07000000E+02
1.11666667E+00	5.24000000E+02
1.11944444E+00	8.34000000E+02
1.12222222E+00	2.30000000E+02
1.12500000E+00	3.75000000E+02
1.12777778E+00	1.47000000E+02
1.13055556E+00	-9.00000000E+01
1.13333333E+00	1.11000000E+02
1.13611111E+00	3.76000000E+02
1.13888889E+00	2.65000000E+02
1.14166667E+00	-2.36000000E+02
1.14444444E+00	-6.20000000E+01
1.14722222E+00	3.05000000E+02
1.15000000E+00	5.18000000E+02
1.15277778E+00	8.44000000E+02
1.15555556E+00	2.40000000E+02
1.15833333E+00	3.80000000E+02
1.16111111E+00	1.56000000E+02
1.16388889E+00	-8.00000000E+01
1.16666667E+00	1.11000000E+02
1.16944444E+00	3.76000000E+02
1.17222222E+00	2.65000000E+02
1.17500000E+00	-2.41000000E+02
1.17777778E+00	-7.50000000E+01
1.18055556E+00	3.22000000E+02
1.18333333E+00	5.13000000E+02
1.18611111E+00	8.39000000E+02
1.18888889E+00	2.40000000E+02
1.19166667E+00	3.89000000E+02
1.19444444E+00	1.66000000E+02
1.19722222E+00	-7.50000000E+01
1.20000000E+00	1.06000000E+02
1.20277778E+00	3.76000000E+02
1.20555556E+00	2.69000000E+02
1.20833333E+00	-2.41000000E+02
1.21111111E+00	-7.50000000E+01
1.21388889E+00	3.22000000E+02
1.21666667E+00	5.03000000E+02
1.21944444E+00	8.33000000E+02
1.22222222E+00	2.40000000E+02
1.22500000E+00	3.89000000E+02
1.22777778E+00	1.66000000E+02
1.23055556E+00	-7.50000000E+01
1.23333333E+00	9.10000000E+01
1.23611111E+00	3.81000000E+02
1.23888889E+00	2.89000000E+02
1.24166667E+00	-2.40000000E+02
1.24444444E+00	-7.90000000E+01
1.24722222E+00	3.25000000E+02
1.25000000E+00	5.03000000E+02
1.25277778E+00	8.38000000E+02
1.25555556E+00	2.40000000E+02
1.25833333E+00	3.94000000E+02
1.26111111E+00	1.66000000E+02
1.26388889E+00	-7.50000000E+01
1.26666667E+00	9.60000000E+01
1.26944444E+00	3.86000000E+02
1.27222222E+00	2.89000000E+02
1.27500000E+00	-2.35000000E+02
1.27777778E+00	-9.70000000E+01
1.28055556E+00	3.37000000E+02
1.28333333E+00	5.03000000E+02
1.28611111E+00	8.38000000E+02
1.28888889E+00	2.35000000E+02
1.29166667E+00	3.94000000E+02
1.29444444E+00	1.71000000E+02
1.29722222E+00	-6.90000000E+01
1.30000000E+00	9.60000000E+01
1.30277778E+00	3.86000000E+02
1.30555556E+00	2.89000000E+02
1.30833333E+00	-2.40000000E+02
1.31111111E+00	-9.40000000E+01
1.31388889E+00	3.39000000E+02
1.31666667E+00	5.13000000E+02
1.31944444E+00	8.42000000E+02
1.32222222E+00	2.35000000E+02
1.32500000E+00	3.94000000E+02
1.32777778E+00	1.71000000E+02
1.33055556E+00	-6.90000000E+01
1.33333333E+00	1.11000000E+02
1.33611111E+00	4.00000000E+02
1.33888889E+00	2.89000000E+02
1.34166667E+00	-2.40000000E+02
1.34444444E+00	-9.40000000E+01
1.34722222E+00	3.39000000E+02
1.35000000E+00	5.03000000E+02
1.35277778E+00	8.37000000E+02
1.35555556E+00	2.30000000E+02
1.35833333E+00	3.99000000E+02
1.36111111E+00	1.81000000E+02
1.36388889E+00	-6.50000000E+01
1.36666667E+00	1.35000000E+02
1.36944444E+00	4.10000000E+02
1.37222222E+00	2.74000000E+02
1.37500000E+00	-2.54000000E+02
1.37777778E+00	-8.70000000E+01
1.38055556E+00	3.47000000E+02
1.38333333E+00	4.89000000E+02
1.38611111E+00	8.31000000E+02
1.38888889E+00	2.30000000E+02
1.39166667E+00	3.89000000E+02
1.39444444E+00	1.71000000E+02
1.39722222E+00	-6.50000000E+01
1.40000000E+00	1.25000000E+02
1.40277778E+00	4.16000000E+02
1.40555556E+00	2.89000000E+02
1.40833333E+00	-2.71000000E+02
1.41111111E+00	-6.70000000E+01
1.41388889E+00	3.44000000E+02
1.41666667E+00	4.79000000E+02
1.41944444E+00	8.31000000E+02
1.42222222E+00	2.40000000E+02
1.42500000E+00	3.88000000E+02
1.42777778E+00	1.71000000E+02
1.43055556E+00	-6.90000000E+01
1.43333333E+00	1.11000000E+02
1.43611111E+00	4.06000000E+02
1.43888889E+00	2.94000000E+02
1.44166667E+00	-2.69000000E+02
1.44444444E+00	-7.90000000E+01
1.44722222E+00	3.54000000E+02
1.45000000E+00	4.69000000E+02
1.45277778E+00	8.26000000E+02
1.45555556E+00	2.35000000E+02
1.45833333E+00	3.98000000E+02
1.46111111E+00	1.81000000E+02
1.46388889E+00	-6.00000000E+01
1.46666667E+00	1.16000000E+02
1.46944444E+00	3.82000000E+02
1.47222222E+00	2.65000000E+02
1.47500000E+00	-2.57000000E+02
1.47777778E+00	-8.90000000E+01
1.48055556E+00	3.51000000E+02
1.48333333E+00	4.69000000E+02
1.48611111E+00	8.26000000E+02
1.48888889E+00	2.35000000E+02
1.49166667E+00	3.93000000E+02
1.49444444E+00	1.71000000E+02
1.49722222E+00	-6.50000000E+01
1.50000000E+00	1.06000000E+02
1.50277778E+00	3.72000000E+02
1.50555556E+00	2.65000000E+02
1.50833333E+00	-2.47000000E+02
1.51111111E+00	-7.20000000E+01
1.51388889E+00	3.26000000E+02
1.51666667E+00	4.69000000E+02
1.51944444E+00	8.31000000E+02
1.52222222E+00	2.40000000E+02
1.52500000E+00	3.98000000E+02
1.52777778E+00	1.77000000E+02
1.53055556E+00	-5.30000000E+01
1.53333333E+00	1.16000000E+02
1.53611111E+00	3.87000000E+02
1.53888889E+00	2.69000000E+02
1.54166667E+00	-2.37000000E+02
1.54444444E+00	-7.70000000E+01
1.54722222E+00	3.21000000E+02
1.55000000E+00	4.69000000E+02
1.55277778E+00	8.31000000E+02
1.55555556E+00	2.35000000E+02
1.55833333E+00	4.08000000E+02
1.56111111E+00	1.87000000E+02
1.56388889E+00	-4.80000000E+01
1.56666667E+00	1.25000000E+02
1.56944444E+00	3.97000000E+02
1.57222222E+00	2.69000000E+02
1.57500000E+00	-2.49000000E+02
1.57777778E+00	-7.50000000E+01
1.58055556E+00	3.30000000E+02
1.58333333E+00	4.69000000E+02
1.58611111E+00	8.30000000E+02
1.58888889E+00	2.35000000E+02
1.59166667E+00	4.03000000E+02
1.59444444E+00	1.82000000E+02
1.59722222E+00	-5.30000000E+01
1.60000000E+00	1.35000000E+02
1.60277778E+00	4.21000000E+02
1.60555556E+00	2.84000000E+02
1.60833333E+00	-2.60000000E+02
1.61111111E+00	-7.00000000E+01
1.61388889E+00	3.35000000E+02
1.61666667E+00	4.64000000E+02
1.61944444E+00	8.30000000E+02
1.62222222E+00	2.35000000E+02
1.62500000E+00	4.02000000E+02
1.62777778E+00	1.82000000E+02
1.63055556E+00	-5.80000000E+01
1.63333333E+00	1.45000000E+02
1.63611111E+00	4.36000000E+02
1.63888889E+00	2.90000000E+02
1.64166667E+00	-2.77000000E+02
1.64444444E+00	-7.20000000E+01
1.64722222E+00	3.55000000E+02
1.65000000E+00	4.59000000E+02
1.65277778E+00	8.35000000E+02
1.65555556E+00	2.41000000E+02
1.65833333E+00	4.02000000E+02
1.66111111E+00	1.82000000E+02
1.66388889E+00	-5.80000000E+01
1.66666667E+00	1.40000000E+02
1.66944444E+00	4.21000000E+02
1.67222222E+00	2.80000000E+02
1.67500000E+00	-2.90000000E+02
1.67777778E+00	-7.00000000E+01
1.68055556E+00	3.65000000E+02
1.68333333E+00	4.54000000E+02
1.68611111E+00	8.40000000E+02
1.68888889E+00	2.50000000E+02
1.69166667E+00	4.07000000E+02
1.69444444E+00	1.87000000E+02
1.69722222E+00	-5.30000000E+01
1.70000000E+00	1.40000000E+02
1.70277778E+00	4.06000000E+02
1.70555556E+00	2.66000000E+02
1.70833333E+00	-2.80000000E+02
1.71111111E+00	-6.70000000E+01
1.71388889E+00	3.52000000E+02
1.71666667E+00	4.49000000E+02
1.71944444E+00	8.34000000E+02
1.72222222E+00	2.50000000E+02
1.72500000E+00	4.17000000E+02
1.72777778E+00	1.96000000E+02
1.73055556E+00	-4.80000000E+01
1.73333333E+00	1.35000000E+02
1.73611111E+00	3.87000000E+02
1.73888889E+00	2.51000000E+02
1.74166667E+00	-2.72000000E+02
1.74444444E+00	-6.00000000E+01
1.74722222E+00	3.38000000E+02
1.75000000E+00	4.34000000E+02
1.75277778E+00	8.13000000E+02
1.75555556E+00	2.31000000E+02
1.75833333E+00	4.16000000E+02
1.76111111E+00	1.96000000E+02
1.76388889E+00	-4.70000000E+01
1.76666667E+00	1.16000000E+02
1.76944444E+00	3.62000000E+02
1.77222222E+00	2.46000000E+02
1.77500000E+00	-2.60000000E+02
1.77777778E+00	-5.50000000E+01
1.78055556E+00	3.21000000E+02
1.78333333E+00	4.34000000E+02
1.78611111E+00	8.08000000E+02
1.78888889E+00	2.31000000E+02
1.79166667E+00	3.96000000E+02
1.79444444E+00	1.87000000E+02
1.79722222E+00	-5.20000000E+01
1.80000000E+00	1.06000000E+02
1.80277778E+00	3.67000000E+02
1.80555556E+00	2.61000000E+02
1.80833333E+00	-2.38000000E+02
1.81111111E+00	-6.20000000E+01
1.81388889E+00	3.06000000E+02
1.81666667E+00	4.29000000E+02
1.81944444E+00	8.03000000E+02
1.82222222E+00	2.21000000E+02
1.82500000E+00	3.96000000E+02
1.82777778E+00	1.82000000E+02
1.83055556E+00	-5.70000000E+01
1.83333333E+00	1.01000000E+02
1.83611111E+00	3.87000000E+02
1.83888889E+00	2.85000000E+02
1.84166667E+00	-2.36000000E+02
1.84444444E+00	-7.50000000E+01
1.84722222E+00	3.16000000E+02
1.85000000E+00	4.34000000E+02
1.85277778E+00	8.03000000E+02
1.85555556E+00	2.16000000E+02
1.85833333E+00	3.86000000E+02
1.86111111E+00	1.72000000E+02
1.86388889E+00	-6.20000000E+01
1.86666667E+00	1.30000000E+02
1.86944444E+00	3.93000000E+02
1.87222222E+00	2.61000000E+02
1.87500000E+00	-2.43000000E+02
1.87777778E+00	-8.90000000E+01
1.88055556E+00	3.38000000E+02
1.88333333E+00	4.38000000E+02
1.88611111E+00	8.18000000E+02
1.88888889E+00	2.31000000E+02
1.89166667E+00	3.86000000E+02
1.89444444E+00	1.72000000E+02
1.89722222E+00	-6.20000000E+01
1.90000000E+00	1.60000000E+02
1.90277778E+00	4.22000000E+02
1.90555556E+00	2.61000000E+02
1.90833333E+00	-2.60000000E+02
1.91111111E+00	-6.20000000E+01
1.91388889E+00	3.28000000E+02
1.91666667E+00	4.28000000E+02
1.91944444E+00	8.08000000E+02
1.92222222E+00	2.26000000E+02
1.92500000E+00	4.01000000E+02
1.92777778E+00	1.87000000E+02
1.93055556E+00	-5.20000000E+01
1.93333333E+00	1.64000000E+02
1.93611111E+00	4.22000000E+02
1.93888889E+00	2.56000000E+02
1.94166667E+00	-2.90000000E+02
1.94444444E+00	-4.80000000E+01
1.94722222E+00	3.43000000E+02
1.95000000E+00	4.14000000E+02
1.95277778E+00	8.07000000E+02
1.95555556E+00	2.31000000E+02
1.95833333E+00	4.01000000E+02
1.96111111E+00	1.87000000E+02
1.96388889E+00	-5.20000000E+01
1.96666667E+00	1.60000000E+02
1.96944444E+00	4.02000000E+02
1.97222222E+00	2.41000000E+02
1.97500000E+00	-2.92000000E+02
1.97777778E+00	-4.30000000E+01
1.98055556E+00	3.40000000E+02
1.98333333E+00	4.09000000E+02
1.98611111E+00	8.07000000E+02
1.98888889E+00	2.31000000E+02
1.99166667E+00	4.06000000E+02
1.99444444E+00	1.97000000E+02
1.99722222E+00	-4.50000000E+01
2.00000000E+00	1.50000000E+02
2.00277778E+00	3.98000000E+02
2.00555556E+00	2.46000000E+02
2.00833333E+00	-2.80000000E+02
2.01111111E+00	-3.90000000E+01
2.01388889E+00	3.23000000E+02
2.01666667E+00	4.14000000E+02
2.01944444E+00	8.02000000E+02
2.02222222E+00	2.31000000E+02
2.02500000E+00	4.11000000E+02
2.02777778E+00	2.02000000E+02
2.03055556E+00	-3.00000000E+01
2.03333333E+00	1.50000000E+02
2.03611111E+00	3.98000000E+02
2.03888889E+00	2.46000000E+02
2.04166667E+00	-2.72000000E+02
2.04444444E+00	-4.60000000E+01
2.04722222E+00	3.23000000E+02
2.05000000E+00	4.23000000E+02
2.05277778E+00	8.17000000E+02
2.05555556E+00	2.41000000E+02
2.05833333E+00	4.05000000E+02
2.06111111E+00	1.93000000E+02
2.06388889E+00	-4.00000000E+01
2.06666667E+00	1.50000000E+02
2.06944444E+00	3.83000000E+02
2.07222222E+00	2.31000000E+02
2.07500000E+00	-2.72000000E+02
2.07777778E+00	-4.60000000E+01
2.08055556E+00	3.23000000E+02
2.08333333E+00	4.43000000E+02
2.08611111E+00	8.40000000E+02
2.08888889E+00	2.60000000E+02
2.09166667E+00	4.10000000E+02
2.09444444E+00	1.97000000E+02
2.09722222E+00	-3.50000000E+01
2.10000000E+00	1.35000000E+02
2.10277778E+00	3.79000000E+02
2.10555556E+00	2.41000000E+02
2.10833333E+00	-2.65000000E+02
2.11111111E+00	-3.90000000E+01
2.11388889E+00	3.08000000E+02
2.11666667E+00	4.48000000E+02
2.11944444E+00	8.44000000E+02
2.12222222E+00	2.60000000E+02
2.12500000E+00	4.34000000E+02
2.12777778E+00	2.12000000E+02
2.13055556E+00	-2.50000000E+01
2.13333333E+00	1.35000000E+02
2.13611111E+00	3.84000000E+02
2.13888889E+00	2.46000000E+02
2.14166667E+00	-2.55000000E+02
2.14444444E+00	-5.10000000E+01
2.14722222E+00	3.11000000E+02
2.15000000E+00	4.57000000E+02
2.15277778E+00	8.54000000E+02
2.15555556E+00	2.70000000E+02
2.15833333E+00	4.29000000E+02
2.16111111E+00	2.07000000E+02
2.16388889E+00	-3.50000000E+01
2.16666667E+00	1.40000000E+02
2.16944444E+00	3.94000000E+02
2.17222222E+00	2.51000000E+02
2.17500000E+00	-2.58000000E+02
2.17777778E+00	-5.40000000E+01
2.18055556E+00	3.16000000E+02
2.18333333E+00	4.53000000E+02
2.18611111E+00	8.49000000E+02
2.18888889E+00	2.60000000E+02
2.19166667E+00	4.39000000E+02
2.19444444E+00	2.12000000E+02
2.19722222E+00	-3.00000000E+01
2.20000000E+00	1.64000000E+02
2.20277778E+00	3.89000000E+02
2.20555556E+00	2.22000000E+02
2.20833333E+00	-2.65000000E+02
2.21111111E+00	-5.40000000E+01
2.21388889E+00	3.23000000E+02
2.21666667E+00	4.42000000E+02
2.21944444E+00	8.39000000E+02
2.22222222E+00	2.55000000E+02
2.22500000E+00	4.34000000E+02
2.22777778E+00	2.13000000E+02
2.23055556E+00	-3.40000000E+01
2.23333333E+00	1.60000000E+02
2.23611111E+00	3.94000000E+02
2.23888889E+00	2.31000000E+02
2.24166667E+00	-2.75000000E+02
2.24444444E+00	-2.70000000E+01
2.24722222E+00	3.07000000E+02
2.25000000E+00	4.37000000E+02
2.25277778E+00	8.35000000E+02
2.25555556E+00	2.55000000E+02
2.25833333E+00	4.24000000E+02
2.26111111E+00	2.03000000E+02
2.26388889E+00	-4.40000000E+01
2.26666667E+00	1.50000000E+02
2.26944444E+00	3.60000000E+02
2.27222222E+00	2.07000000E+02
2.27500000E+00	-2.75000000E+02
2.27777778E+00	-3.40000000E+01
2.28055556E+00	3.14000000E+02
2.28333333E+00	4.42000000E+02
2.28611111E+00	8.39000000E+02
2.28888889E+00	2.60000000E+02
2.29166667E+00	4.19000000E+02
2.29444444E+00	1.98000000E+02
2.29722222E+00	-4.40000000E+01
2.30000000E+00	1.35000000E+02
2.30277778E+00	3.35000000E+02
2.30555556E+00	1.97000000E+02
2.30833333E+00	-2.53000000E+02
2.31111111E+00	-2.70000000E+01
2.31388889E+00	2.85000000E+02
2.31666667E+00	4.37000000E+02
2.31944444E+00	8.24000000E+02
2.32222222E+00	2.45000000E+02
2.32500000E+00	4.28000000E+02
2.32777778E+00	2.03000000E+02
2.33055556E+00	-3.90000000E+01
2.33333333E+00	1.21000000E+02
2.33611111E+00	3.30000000E+02
2.33888889E+00	2.07000000E+02
2.34166667E+00	-2.33000000E+02
2.34444444E+00	-2.90000000E+01
2.34722222E+00	2.68000000E+02
2.35000000E+00	4.47000000E+02
2.35277778E+00	8.34000000E+02
2.35555556E+00	2.45000000E+02
2.35833333E+00	4.14000000E+02
2.36111111E+00	1.94000000E+02
2.36388889E+00	-4.90000000E+01
2.36666667E+00	1.16000000E+02
2.36944444E+00	3.25000000E+02
2.37222222E+00	2.07000000E+02
2.37500000E+00	-2.24000000E+02
2.37777778E+00	-4.10000000E+01
2.38055556E+00	2.70000000E+02
2.38333333E+00	4.47000000E+02
2.38611111E+00	8.24000000E+02
2.38888889E+00	2.41000000E+02
2.39166667E+00	4.13000000E+02
2.39444444E+00	1.94000000E+02
2.39722222E+00	-4.90000000E+01
2.40000000E+00	1.16000000E+02
2.40277778E+00	3.40000000E+02
2.40555556E+00	2.22000000E+02
2.40833333E+00	-2.20000000E+02
2.41111111E+00	-4.40000000E+01
2.41388889E+00	2.68000000E+02
2.41666667E+00	4.47000000E+02
2.41944444E+00	8.14000000E+02
2.42222222E+00	2.31000000E+02
2.42500000E+00	4.08000000E+02
2.42777778E+00	1.89000000E+02
2.43055556E+00	-6.10000000E+01
2.43333333E+00	1.01000000E+02
2.43611111E+00	3.45000000E+02
2.43888889E+00	2.42000000E+02
2.44166667E+00	-2.27000000E+02
2.44444444E+00	-5.10000000E+01
2.44722222E+00	2.83000000E+02
2.45000000E+00	4.52000000E+02
2.45277778E+00	8.23000000E+02
2.45555556E+00	2.45000000E+02
2.45833333E+00	4.03000000E+02
2.46111111E+00	1.79000000E+02
2.46388889E+00	-6.60000000E+01
2.46666667E+00	8.60000000E+01
2.46944444E+00	3.30000000E+02
2.47222222E+00	2.42000000E+02
2.47500000E+00	-2.22000000E+02
2.47777778E+00	-6.80000000E+01
2.48055556E+00	2.95000000E+02
2.48333333E+00	4.42000000E+02
2.48611111E+00	8.18000000E+02
2.48888889E+00	2.36000000E+02
2.49166667E+00	4.18000000E+02
2.49444444E+00	1.94000000E+02
2.49722222E+00	-5.70000000E+01
2.50000000E+00	9.60000000E+01
2.50277778E+00	3.35000000E+02
2.50555556E+00	2.37000000E+02
2.50833333E+00	-2.08000000E+02
2.51111111E+00	-7.60000000E+01
2.51388889E+00	2.89000000E+02
2.51666667E+00	4.56000000E+02
2.51944444E+00	8.22000000E+02
2.52222222E+00	2.41000000E+02
2.52500000E+00	4.08000000E+02
2.52777778E+00	1.79000000E+02
2.53055556E+00	-7.60000000E+01
2.53333333E+00	9.60000000E+01
2.53611111E+00	3.35000000E+02
2.53888889E+00	2.37000000E+02
2.54166667E+00	-2.15000000E+02
2.54444444E+00	-6.80000000E+01
2.54722222E+00	2.89000000E+02
2.55000000E+00	4.66000000E+02
2.55277778E+00	8.22000000E+02
2.55555556E+00	2.26000000E+02
2.55833333E+00	4.03000000E+02
2.56111111E+00	1.74000000E+02
2.56388889E+00	-7.60000000E+01
2.56666667E+00	8.60000000E+01
2.56944444E+00	2.91000000E+02
2.57222222E+00	2.03000000E+02
2.57500000E+00	-2.15000000E+02
2.57777778E+00	-6.80000000E+01
2.58055556E+00	2.89000000E+02
2.58333333E+00	4.61000000E+02
2.58611111E+00	8.12000000E+02
2.58888889E+00	2.11000000E+02
2.59166667E+00	3.83000000E+02
2.59444444E+00	1.59000000E+02
2.59722222E+00	-8.60000000E+01
2.60000000E+00	8.60000000E+01
2.60277778E+00	2.72000000E+02
2.60555556E+00	1.84000000E+02
2.60833333E+00	-1.88000000E+02
2.61111111E+00	-5.60000000E+01
2.61388889E+00	2.49000000E+02
2.61666667E+00	4.71000000E+02
2.61944444E+00	8.32000000E+02
2.62222222E+00	2.31000000E+02
2.62500000E+00	3.69000000E+02
2.62777778E+00	1.50000000E+02
2.63055556E+00	-9.60000000E+01
2.63333333E+00	7.70000000E+01
2.63611111E+00	2.81000000E+02
2.63888889E+00	2.03000000E+02
2.64166667E+00	-1.78000000E+02
2.64444444E+00	-4.60000000E+01
2.64722222E+00	2.30000000E+02
2.65000000E+00	4.81000000E+02
2.65277778E+00	8.32000000E+02
2.65555556E+00	2.31000000E+02
2.65833333E+00	3.88000000E+02
2.66111111E+00	1.64000000E+02
2.66388889E+00	-8.50000000E+01
2.66666667E+00	8.60000000E+01
2.66944444E+00	2.91000000E+02
2.67222222E+00	2.03000000E+02
2.67500000E+00	-1.78000000E+02
2.67777778E+00	-6.10000000E+01
2.68055556E+00	2.45000000E+02
2.68333333E+00	4.81000000E+02
2.68611111E+00	8.26000000E+02
2.68888889E+00	2.26000000E+02
2.69166667E+00	3.88000000E+02
2.69444444E+00	1.59000000E+02
2.69722222E+00	-9.00000000E+01
2.70000000E+00	9.60000000E+01
2.70277778E+00	2.81000000E+02
2.70555556E+00	1.85000000E+02
2.70833333E+00	-1.88000000E+02
2.71111111E+00	-5.60000000E+01
2.71388889E+00	2.49000000E+02
2.71666667E+00	4.76000000E+02
2.71944444E+00	8.26000000E+02
2.72222222E+00	2.21000000E+02
2.72500000E+00	3.82000000E+02
2.72777778E+00	1.50000000E+02
2.73055556E+00	-9.50000000E+01
2.73333333E+00	1.06000000E+02
2.73611111E+00	2.86000000E+02
2.73888889E+00	1.80000000E+02
2.74166667E+00	-1.88000000E+02
2.74444444E+00	-4.10000000E+01
2.74722222E+00	2.35000000E+02
2.75000000E+00	4.75000000E+02
2.75277778E+00	8.21000000E+02
2.75555556E+00	2.16000000E+02
2.75833333E+00	3.78000000E+02
2.76111111E+00	1.45000000E+02
2.76388889E+00	-1.09000000E+02
2.76666667E+00	9.60000000E+01
2.76944444E+00	2.92000000E+02
2.77222222E+00	1.94000000E+02
2.77500000E+00	-1.95000000E+02
2.77777778E+00	-3.40000000E+01
2.78055556E+00	2.35000000E+02
2.78333333E+00	4.75000000E+02
2.78611111E+00	8.21000000E+02
2.78888889E+00	2.21000000E+02
2.79166667E+00	3.73000000E+02
2.79444444E+00	1.45000000E+02
2.79722222E+00	-1.09000000E+02
2.80000000E+00	9.60000000E+01
2.80277778E+00	2.87000000E+02
2.80555556E+00	1.89000000E+02
2.80833333E+00	-1.93000000E+02
2.81111111E+00	-4.60000000E+01
2.81388889E+00	2.45000000E+02
2.81666667E+00	4.70000000E+02
2.81944444E+00	8.20000000E+02
2.82222222E+00	2.16000000E+02
2.82500000E+00	3.73000000E+02
2.82777778E+00	1.45000000E+02
2.83055556E+00	-9.90000000E+01
2.83333333E+00	1.06000000E+02
2.83611111E+00	2.87000000E+02
2.83888889E+00	1.80000000E+02
2.84166667E+00	-1.90000000E+02
2.84444444E+00	-4.40000000E+01
2.84722222E+00	2.40000000E+02
2.85000000E+00	4.60000000E+02
2.85277778E+00	8.10000000E+02
2.85555556E+00	2.11000000E+02
2.85833333E+00	3.73000000E+02
2.86111111E+00	1.50000000E+02
2.86388889E+00	-9.90000000E+01
2.86666667E+00	8.10000000E+01
2.86944444E+00	2.63000000E+02
2.87222222E+00	1.80000000E+02
2.87500000E+00	-1.95000000E+02
2.87777778E+00	-3.40000000E+01
2.88055556E+00	2.35000000E+02
2.88333333E+00	4.60000000E+02
2.88611111E+00	8.04000000E+02
2.88888889E+00	2.11000000E+02
2.89166667E+00	3.68000000E+02
2.89444444E+00	1.41000000E+02
2.89722222E+00	-1.07000000E+02
2.90000000E+00	7.70000000E+01
2.90277778E+00	2.53000000E+02
2.90555556E+00	1.75000000E+02
2.90833333E+00	-1.71000000E+02
2.91111111E+00	-4.60000000E+01
2.91388889E+00	2.23000000E+02
2.91666667E+00	4.70000000E+02
2.91944444E+00	8.14000000E+02
2.92222222E+00	2.16000000E+02
2.92500000E+00	3.67000000E+02
2.92777778E+00	1.41000000E+02
2.93055556E+00	-1.02000000E+02
2.93333333E+00	8.60000000E+01
2.93611111E+00	2.58000000E+02
2.93888889E+00	1.70000000E+02
2.94166667E+00	-1.64000000E+02
2.94444444E+00	-4.60000000E+01
2.94722222E+00	2.15000000E+02
2.95000000E+00	4.69000000E+02
2.95277778E+00	8.09000000E+02
2.95555556E+00	2.06000000E+02
2.95833333E+00	3.77000000E+02
2.96111111E+00	1.51000000E+02
2.96388889E+00	-9.30000000E+01
2.96666667E+00	8.60000000E+01
2.96944444E+00	2.63000000E+02
2.97222222E+00	1.75000000E+02
2.97500000E+00	-1.71000000E+02
2.97777778E+00	-3.90000000E+01
2.98055556E+00	2.16000000E+02
2.98333333E+00	4.69000000E+02
2.98611111E+00	8.09000000E+02
2.98888889E+00	2.06000000E+02
2.99166667E+00	3.67000000E+02
2.99444444E+00	1.41000000E+02
2.99722222E+00	-1.07000000E+02
3.00000000E+00	9.60000000E+01
3.00277778E+00	2.68000000E+02
3.00555556E+00	1.70000000E+02
3.00833333E+00	-1.73000000E+02
3.01111111E+00	-4.10000000E+01
3.01388889E+00	2.21000000E+02
3.01666667E+00	4.74000000E+02
3.01944444E+00	8.09000000E+02
3.02222222E+00	2.06000000E+02
3.02500000E+00	3.61000000E+02
3.02777778E+00	1.41000000E+02
3.03055556E+00	-1.07000000E+02
3.03333333E+00	1.11000000E+02
3.03611111E+00	2.82000000E+02
3.03888889E+00	1.70000000E+02
3.04166667E+00	-1.81000000E+02
3.04444444E+00	-3.40000000E+01
3.04722222E+00	2.21000000E+02
3.05000000E+00	4.69000000E+02
3.05277778E+00	8.08000000E+02
3.05555556E+00	2.01000000E+02
3.05833333E+00	3.66000000E+02
3.06111111E+00	1.41000000E+02
3.06388889E+00	-1.07000000E+02
3.06666667E+00	9.60000000E+01
3.06944444E+00	2.82000000E+02
3.07222222E+00	1.85000000E+02
3.07500000E+00	-1.95000000E+02
3.07777778E+00	-2.70000000E+01
3.08055556E+00	2.29000000E+02
3.08333333E+00	4.74000000E+02
3.08611111E+00	8.13000000E+02
3.08888889E+00	2.11000000E+02
3.09166667E+00	3.56000000E+02
3.09444444E+00	1.31000000E+02
3.09722222E+00	-1.17000000E+02
3.10000000E+00	8.10000000E+01
3.10277778E+00	2.87000000E+02
3.10555556E+00	2.04000000E+02
3.10833333E+00	-1.88000000E+02
3.11111111E+00	-4.10000000E+01
3.11388889E+00	2.36000000E+02
3.11666667E+00	4.74000000E+02
3.11944444E+00	8.13000000E+02
3.12222222E+00	2.16000000E+02
3.12500000E+00	3.61000000E+02
3.12777778E+00	1.36000000E+02
3.13055556E+00	-1.06000000E+02
3.13333333E+00	8.60000000E+01
3.13611111E+00	2.63000000E+02
3.13888889E+00	1.75000000E+02
3.14166667E+00	-1.83000000E+02
3.14444444E+00	-5.90000000E+01
3.14722222E+00	2.48000000E+02
3.15000000E+00	4.74000000E+02
3.15277778E+00	8.13000000E+02
3.15555556E+00	2.11000000E+02
3.15833333E+00	3.71000000E+02
3.16111111E+00	1.46000000E+02
3.16388889E+00	-1.01000000E+02
3.16666667E+00	7.70000000E+01
3.16944444E+00	2.48000000E+02
3.17222222E+00	1.70000000E+02
3.17500000E+00	-1.73000000E+02
3.17777778E+00	-4.10000000E+01
3.18055556E+00	2.21000000E+02
3.18333333E+00	4.74000000E+02
3.18611111E+00	8.12000000E+02
3.18888889E+00	2.16000000E+02
3.19166667E+00	3.66000000E+02
3.19444444E+00	1.36000000E+02
3.19722222E+00	-1.11000000E+02
3.20000000E+00	7.70000000E+01
3.20277778E+00	2.58000000E+02
3.20555556E+00	1.80000000E+02
3.20833333E+00	-1.61000000E+02
3.21111111E+00	-4.40000000E+01
3.21388889E+00	2.11000000E+02
3.21666667E+00	4.79000000E+02
3.21944444E+00	8.17000000E+02
3.22222222E+00	2.13000000E+02
3.22500000E+00	3.71000000E+02
3.22777778E+00	1.46000000E+02
3.23055556E+00	-1.01000000E+02
3.23333333E+00	7.70000000E+01
3.23611111E+00	2.49000000E+02
3.23888889E+00	1.70000000E+02
3.24166667E+00	-1.66000000E+02
3.24444444E+00	-4.90000000E+01
3.24722222E+00	2.21000000E+02
3.25000000E+00	4.84000000E+02
3.25277778E+00	8.11000000E+02
3.25555556E+00	2.08000000E+02
3.25833333E+00	3.71000000E+02
3.26111111E+00	1.41000000E+02
3.26388889E+00	-1.11000000E+02
3.26666667E+00	8.10000000E+01
3.26944444E+00	2.64000000E+02
3.27222222E+00	1.81000000E+02
3.27500000E+00	-1.61000000E+02
3.27777778E+00	-4.40000000E+01
3.28055556E+00	2.11000000E+02
3.28333333E+00	4.78000000E+02
3.28611111E+00	8.06000000E+02
3.28888889E+00	2.08000000E+02
3.29166667E+00	3.66000000E+02
3.29444444E+00	1.31000000E+02
3.29722222E+00	-1.21000000E+02
3.30000000E+00	9.60000000E+01
3.30277778E+00	2.79000000E+02
3.30555556E+00	1.81000000E+02
3.30833333E+00	-1.71000000E+02
3.31111111E+00	-4.60000000E+01
3.31388889E+00	2.24000000E+02
3.31666667E+00	4.83000000E+02
3.31944444E+00	8.11000000E+02
3.32222222E+00	2.08000000E+02
3.32500000E+00	3.71000000E+02
3.32777778E+00	1.36000000E+02
3.33055556E+00	-1.16000000E+02
3.33333333E+00	9.10000000E+01
3.33611111E+00	2.69000000E+02
3.33888889E+00	1.76000000E+02
3.34166667E+00	-1.86000000E+02
3.34444444E+00	-3.90000000E+01
3.34722222E+00	2.31000000E+02
3.35000000E+00	4.88000000E+02
3.35277778E+00	8.16000000E+02
3.35555556E+00	2.13000000E+02
3.35833333E+00	3.65000000E+02
3.36111111E+00	1.32000000E+02
3.36388889E+00	-1.14000000E+02
3.36666667E+00	8.60000000E+01
3.36944444E+00	2.69000000E+02
3.37222222E+00	1.81000000E+02
3.37500000E+00	-1.78000000E+02
3.37777778E+00	-3.90000000E+01
3.38055556E+00	2.24000000E+02
3.38333333E+00	4.73000000E+02
3.38611111E+00	8.06000000E+02
3.38888889E+00	2.08000000E+02
3.39166667E+00	3.70000000E+02
3.39444444E+00	1.37000000E+02
3.39722222E+00	-1.14000000E+02
3.40000000E+00	7.70000000E+01
3.40277778E+00	2.69000000E+02
3.40555556E+00	1.90000000E+02
3.40833333E+00	-1.76000000E+02
3.41111111E+00	-4.40000000E+01
3.41388889E+00	2.26000000E+02
3.41666667E+00	4.88000000E+02
3.41944444E+00	8.10000000E+02
3.42222222E+00	2.13000000E+02
3.42500000E+00	3.65000000E+02
3.42777778E+00	1.32000000E+02
3.43055556E+00	-1.14000000E+02
3.43333333E+00	6.70000000E+01
3.43611111E+00	2.64000000E+02
3.43888889E+00	1.95000000E+02
3.44166667E+00	-1.71000000E+02
3.44444444E+00	-5.40000000E+01
3.44722222E+00	2.31000000E+02
3.45000000E+00	4.88000000E+02
3.45277778E+00	8.15000000E+02
3.45555556E+00	2.18000000E+02
3.45833333E+00	3.75000000E+02
3.46111111E+00	1.37000000E+02
3.46388889E+00	-1.09000000E+02
3.46666667E+00	7.70000000E+01
3.46944444E+00	2.50000000E+02
3.47222222E+00	1.71000000E+02
3.47500000E+00	-1.64000000E+02
3.47777778E+00	-6.10000000E+01
3.48055556E+00	2.31000000E+02
3.48333333E+00	4.83000000E+02
3.48611111E+00	8.10000000E+02
3.48888889E+00	2.08000000E+02
3.49166667E+00	3.75000000E+02
3.49444444E+00	1.37000000E+02
3.49722222E+00	-1.09000000E+02
3.50000000E+00	7.20000000E+01
3.50277778E+00	2.41000000E+02
3.50555556E+00	1.66000000E+02
3.50833333E+00	-1.61000000E+02
3.51111111E+00	-4.40000000E+01
3.51388889E+00	2.11000000E+02
3.51666667E+00	4.88000000E+02
3.51944444E+00	8.15000000E+02
3.52222222E+00	2.08000000E+02
3.52500000E+00	3.75000000E+02
3.52777778E+00	1.32000000E+02
3.53055556E+00	-1.14000000E+02
3.53333333E+00	8.10000000E+01
3.53611111E+00	2.41000000E+02
3.53888889E+00	1.56000000E+02
3.54166667E+00	-1.54000000E+02
3.54444444E+00	-4.40000000E+01
3.54722222E+00	2.04000000E+02
3.55000000E+00	4.88000000E+02
3.55277778E+00	8.14000000E+02
3.55555556E+00	2.08000000E+02
3.55833333E+00	3.69000000E+02
3.56111111E+00	1.27000000E+02
3.56388889E+00	-1.19000000E+02
3.56666667E+00	8.60000000E+01
3.56944444E+00	2.65000000E+02
3.57222222E+00	1.76000000E+02
3.57500000E+00	-1.60000000E+02
3.57777778E+00	-3.40000000E+01
3.58055556E+00	1.99000000E+02
3.58333333E+00	4.88000000E+02
3.58611111E+00	8.14000000E+02
3.58888889E+00	2.08000000E+02
3.59166667E+00	3.69000000E+02
3.59444444E+00	1.28000000E+02
3.59722222E+00	-1.18000000E+02
3.60000000E+00	9.60000000E+01
3.60277778E+00	2.60000000E+02
3.60555556E+00	1.61000000E+02
3.60833333E+00	-1.74000000E+02
3.61111111E+00	-4.10000000E+01
3.61388889E+00	2.21000000E+02
3.61666667E+00	4.88000000E+02
3.61944444E+00	8.13000000E+02
3.62222222E+00	2.08000000E+02
3.62500000E+00	3.74000000E+02
3.62777778E+00	1.28000000E+02
3.63055556E+00	-1.28000000E+02
3.63333333E+00	9.10000000E+01
3.63611111E+00	2.75000000E+02
3.63888889E+00	1.81000000E+02
3.64166667E+00	-1.77000000E+02
3.64444444E+00	-2.90000000E+01
3.64722222E+00	2.11000000E+02
3.65000000E+00	4.93000000E+02
3.65277778E+00	8.18000000E+02
3.65555556E+00	2.18000000E+02
3.65833333E+00	3.69000000E+02
3.66111111E+00	1.28000000E+02
3.66388889E+00	-1.23000000E+02
3.66666667E+00	8.60000000E+01
3.66944444E+00	2.60000000E+02
3.67222222E+00	1.71000000E+02
3.67500000E+00	-1.82000000E+02
3.67777778E+00	-4.10000000E+01
3.68055556E+00	2.29000000E+02
3.68333333E+00	4.93000000E+02
3.68611111E+00	8.18000000E+02
3.68888889E+00	2.13000000E+02
3.69166667E+00	3.77000000E+02
3.69444444E+00	1.38000000E+02
3.69722222E+00	-1.13000000E+02
3.70000000E+00	7.70000000E+01
3.70277778E+00	2.41000000E+02
3.70555556E+00	1.61000000E+02
3.70833333E+00	-1.72000000E+02
3.71111111E+00	-3.90000000E+01
3.71388889E+00	2.17000000E+02
3.71666667E+00	4.88000000E+02
3.71944444E+00	8.13000000E+02
3.72222222E+00	2.13000000E+02
3.72500000E+00	3.73000000E+02
3.72777778E+00	1.33000000E+02
3.73055556E+00	-1.18000000E+02
3.73333333E+00	5.70000000E+01
3.73611111E+00	2.41000000E+02
3.73888889E+00	1.81000000E+02
3.74166667E+00	-1.57000000E+02
3.74444444E+00	-3.90000000E+01
3.74722222E+00	2.03000000E+02
3.75000000E+00	4.88000000E+02
3.75277778E+00	8.18000000E+02
3.75555556E+00	2.13000000E+02
3.75833333E+00	3.68000000E+02
3.76111111E+00	1.28000000E+02
3.76388889E+00	-1.18000000E+02
3.76666667E+00	6.70000000E+01
3.76944444E+00	2.41000000E+02
3.77222222E+00	1.71000000E+02
3.77500000E+00	-1.48000000E+02
3.77777778E+00	-5.90000000E+01
3.78055556E+00	2.12000000E+02
3.78333333E+00	4.93000000E+02
3.78611111E+00	8.17000000E+02
3.78888889E+00	2.13000000E+02
3.79166667E+00	3.73000000E+02
3.79444444E+00	1.33000000E+02
3.79722222E+00	-1.18000000E+02
3.80000000E+00	8.10000000E+01
3.80277778E+00	2.65000000E+02
3.80555556E+00	1.81000000E+02
3.80833333E+00	-1.52000000E+02
3.81111111E+00	-4.90000000E+01
3.81388889E+00	2.08000000E+02
3.81666667E+00	4.96000000E+02
3.81944444E+00	8.17000000E+02
3.82222222E+00	2.13000000E+02
3.82500000E+00	3.73000000E+02
3.82777778E+00	1.33000000E+02
3.83055556E+00	-1.16000000E+02
3.83333333E+00	9.10000000E+01
3.83611111E+00	2.75000000E+02
3.83888889E+00	1.81000000E+02
3.84166667E+00	-1.72000000E+02
3.84444444E+00	-4.60000000E+01
3.84722222E+00	2.25000000E+02
3.85000000E+00	4.92000000E+02
3.85277778E+00	8.17000000E+02
3.85555556E+00	2.13000000E+02
3.85833333E+00	3.68000000E+02
3.86111111E+00	1.28000000E+02
3.86388889E+00	-1.21000000E+02
3.86666667E+00	9.60000000E+01
3.86944444E+00	2.75000000E+02
3.87222222E+00	1.76000000E+02
3.87500000E+00	-1.82000000E+02
3.87777778E+00	-4.10000000E+01
3.88055556E+00	2.30000000E+02
3.88333333E+00	4.87000000E+02
3.88611111E+00	8.07000000E+02
3.88888889E+00	2.03000000E+02
3.89166667E+00	3.68000000E+02
3.89444444E+00	1.28000000E+02
3.89722222E+00	-1.21000000E+02
3.90000000E+00	9.60000000E+01
3.90277778E+00	2.75000000E+02
3.90555556E+00	1.76000000E+02
3.90833333E+00	-1.84000000E+02
3.91111111E+00	-3.70000000E+01
3.91388889E+00	2.27000000E+02
3.91666667E+00	4.87000000E+02
3.91944444E+00	8.11000000E+02
3.92222222E+00	2.13000000E+02
3.92500000E+00	3.58000000E+02
3.92777778E+00	1.14000000E+02
3.93055556E+00	-1.35000000E+02
3.93333333E+00	9.10000000E+01
3.93611111E+00	2.60000000E+02
3.93888889E+00	1.66000000E+02
3.94166667E+00	-1.84000000E+02
3.94444444E+00	-3.70000000E+01
3.94722222E+00	2.27000000E+02
3.95000000E+00	4.87000000E+02
3.95277778E+00	8.11000000E+02
3.95555556E+00	2.13000000E+02
3.95833333E+00	3.68000000E+02
3.96111111E+00	1.28000000E+02
3.96388889E+00	-1.26000000E+02
3.96666667E+00	8.60000000E+01
3.96944444E+00	2.55000000E+02
3.97222222E+00	1.66000000E+02
3.97500000E+00	-1.75000000E+02
3.97777778E+00	-3.60000000E+01
3.98055556E+00	2.16000000E+02
3.98333333E+00	4.82000000E+02
3.98611111E+00	8.10000000E+02
3.98888889E+00	2.13000000E+02
3.99166667E+00	3.72000000E+02
3.99444444E+00	1.33000000E+02
3.99722222E+00	-1.21000000E+02
4.00000000E+00	7.70000000E+01
4.00277778E+00	2.45000000E+02
4.00555556E+00	1.66000000E+02
4.00833333E+00	-1.71000000E+02
4.01111111E+00	-3.90000000E+01
4.01388889E+00	2.13000000E+02
4.01666667E+00	4.95000000E+02
4.01944444E+00	8.20000000E+02
4.02222222E+00	2.18000000E+02
4.02500000E+00	3.67000000E+02
4.02777778E+00	1.28000000E+02
4.03055556E+00	-1.21000000E+02
4.03333333E+00	6.20000000E+01
4.03611111E+00	2.45000000E+02
4.03888889E+00	1.81000000E+02
4.04166667E+00	-1.61000000E+02
4.04444444E+00	-4.30000000E+01
4.04722222E+00	2.09000000E+02
4.05000000E+00	4.91000000E+02
4.05277778E+00	8.15000000E+02
4.05555556E+00	2.13000000E+02
4.05833333E+00	3.76000000E+02
4.06111111E+00	1.38000000E+02
4.06388889E+00	-1.10000000E+02
4.06666667E+00	7.70000000E+01
4.06944444E+00	2.55000000E+02
4.07222222E+00	1.77000000E+02
4.07500000E+00	-1.53000000E+02
4.07777778E+00	-5.80000000E+01
4.08055556E+00	2.16000000E+02
4.08333333E+00	4.91000000E+02
4.08611111E+00	8.15000000E+02
4.08888889E+00	2.08000000E+02
4.09166667E+00	3.72000000E+02
4.09444444E+00	1.28000000E+02
4.09722222E+00	-1.15000000E+02
4.10000000E+00	9.10000000E+01
4.10277778E+00	2.55000000E+02
4.10555556E+00	1.62000000E+02
4.10833333E+00	-1.66000000E+02
4.11111111E+00	-4.80000000E+01
4.11388889E+00	2.18000000E+02
4.11666667E+00	4.95000000E+02
4.11944444E+00	8.20000000E+02
4.12222222E+00	2.13000000E+02
4.12500000E+00	3.67000000E+02
4.12777778E+00	1.23000000E+02
4.13055556E+00	-1.25000000E+02
4.13333333E+00	9.60000000E+01
4.13611111E+00	2.65000000E+02
4.13888889E+00	1.67000000E+02
4.14166667E+00	-1.73000000E+02
4.14444444E+00	-3.40000000E+01
4.14722222E+00	2.11000000E+02
4.15000000E+00	4.91000000E+02
4.15277778E+00	8.14000000E+02
4.15555556E+00	2.08000000E+02
4.15833333E+00	3.72000000E+02
4.16111111E+00	1.28000000E+02
4.16388889E+00	-1.25000000E+02
4.16666667E+00	9.60000000E+01
4.16944444E+00	2.76000000E+02
4.17222222E+00	1.77000000E+02
4.17500000E+00	-1.80000000E+02
4.17777778E+00	-3.40000000E+01
4.18055556E+00	2.18000000E+02
4.18333333E+00	4.91000000E+02
4.18611111E+00	8.09000000E+02
4.18888889E+00	2.08000000E+02
4.19166667E+00	3.67000000E+02
4.19444444E+00	1.19000000E+02
4.19722222E+00	-1.30000000E+02
4.20000000E+00	9.10000000E+01
4.20277778E+00	2.66000000E+02
4.20555556E+00	1.72000000E+02
4.20833333E+00	-1.85000000E+02
4.21111111E+00	-3.90000000E+01
4.21388889E+00	2.28000000E+02
4.21666667E+00	4.95000000E+02
4.21944444E+00	8.14000000E+02
4.22222222E+00	2.13000000E+02
4.22500000E+00	3.66000000E+02
4.22777778E+00	1.23000000E+02
4.23055556E+00	-1.25000000E+02
4.23333333E+00	8.60000000E+01
4.23611111E+00	2.51000000E+02
4.23888889E+00	1.62000000E+02
4.24166667E+00	-1.78000000E+02
4.24444444E+00	-3.90000000E+01
4.24722222E+00	2.21000000E+02
4.25000000E+00	4.86000000E+02
4.25277778E+00	8.09000000E+02
4.25555556E+00	2.13000000E+02
4.25833333E+00	3.75000000E+02
4.26111111E+00	1.33000000E+02
4.26388889E+00	-1.20000000E+02
4.26666667E+00	7.70000000E+01
4.26944444E+00	2.42000000E+02
4.27222222E+00	1.62000000E+02
4.27500000E+00	-1.68000000E+02
4.27777778E+00	-3.60000000E+01
4.28055556E+00	2.09000000E+02
4.28333333E+00	4.95000000E+02
4.28611111E+00	8.13000000E+02
4.28888889E+00	2.18000000E+02
4.29166667E+00	3.71000000E+02
4.29444444E+00	1.29000000E+02
4.29722222E+00	-1.23000000E+02
4.30000000E+00	7.70000000E+01
4.30277778E+00	2.46000000E+02
4.30555556E+00	1.67000000E+02
4.30833333E+00	-1.58000000E+02
4.31111111E+00	-4.10000000E+01
4.31388889E+00	2.04000000E+02
4.31666667E+00	5.00000000E+02
4.31944444E+00	8.22000000E+02
4.32222222E+00	2.18000000E+02
4.32500000E+00	3.74000000E+02
4.32777778E+00	1.34000000E+02
4.33055556E+00	-1.18000000E+02
4.33333333E+00	7.70000000E+01
4.33611111E+00	2.51000000E+02
4.33888889E+00	1.73000000E+02
4.34166667E+00	-1.61000000E+02
4.34444444E+00	-4.30000000E+01
4.34722222E+00	2.09000000E+02
4.35000000E+00	4.99000000E+02
4.35277778E+00	8.17000000E+02
4.35555556E+00	2.08000000E+02
4.35833333E+00	3.79000000E+02
4.36111111E+00	1.39000000E+02
4.36388889E+00	-1.13000000E+02
4.36666667E+00	7.20000000E+01
4.36944444E+00	2.61000000E+02
4.37222222E+00	1.88000000E+02
4.37500000E+00	-1.63000000E+02
4.37777778E+00	-4.60000000E+01
4.38055556E+00	2.13000000E+02
4.38333333E+00	4.94000000E+02
4.38611111E+00	8.17000000E+02
4.38888889E+00	2.08000000E+02
4.39166667E+00	3.70000000E+02
4.39444444E+00	1.24000000E+02
4.39722222E+00	-1.32000000E+02
4.40000000E+00	8.60000000E+01
4.40277778E+00	2.61000000E+02
4.40555556E+00	1.73000000E+02
4.40833333E+00	-1.66000000E+02
4.41111111E+00	-5.60000000E+01
4.41388889E+00	2.26000000E+02
4.41666667E+00	4.99000000E+02
4.41944444E+00	8.17000000E+02
4.42222222E+00	2.13000000E+02
4.42500000E+00	3.74000000E+02
4.42777778E+00	1.29000000E+02
4.43055556E+00	-1.23000000E+02
4.43333333E+00	1.06000000E+02
4.43611111E+00	2.71000000E+02
4.43888889E+00	1.63000000E+02
4.44166667E+00	-1.73000000E+02
4.44444444E+00	-4.10000000E+01
4.44722222E+00	2.19000000E+02
4.45000000E+00	4.94000000E+02
4.45277778E+00	8.17000000E+02
4.45555556E+00	2.08000000E+02
4.45833333E+00	3.79000000E+02
4.46111111E+00	1.29000000E+02
4.46388889E+00	-1.18000000E+02
4.46666667E+00	1.01000000E+02
4.46944444E+00	2.76000000E+02
4.47222222E+00	1.73000000E+02
4.47500000E+00	-1.88000000E+02
4.47777778E+00	-2.60000000E+01
4.48055556E+00	2.19000000E+02
4.48333333E+00	4.94000000E+02
4.48611111E+00	8.12000000E+02
4.48888889E+00	2.13000000E+02
4.49166667E+00	3.70000000E+02
4.49444444E+00	1.20000000E+02
4.49722222E+00	-1.32000000E+02
4.50000000E+00	9.10000000E+01
4.50277778E+00	2.61000000E+02
4.50555556E+00	1.68000000E+02
4.50833333E+00	-1.88000000E+02
4.51111111E+00	-3.40000000E+01
4.51388889E+00	2.27000000E+02
4.51666667E+00	4.94000000E+02
4.51944444E+00	8.11000000E+02
4.52222222E+00	2.18000000E+02
4.52500000E+00	3.74000000E+02
4.52777778E+00	1.29000000E+02
4.53055556E+00	-1.22000000E+02
4.53333333E+00	7.70000000E+01
4.53611111E+00	2.37000000E+02
4.53888889E+00	1.58000000E+02
4.54166667E+00	-1.75000000E+02
4.54444444E+00	-3.60000000E+01
4.54722222E+00	2.17000000E+02
4.55000000E+00	4.90000000E+02
4.55277778E+00	8.11000000E+02
4.55555556E+00	2.13000000E+02
4.55833333E+00	3.79000000E+02
4.56111111E+00	1.29000000E+02
4.56388889E+00	-1.22000000E+02
4.56666667E+00	6.70000000E+01
4.56944444E+00	2.42000000E+02
4.57222222E+00	1.73000000E+02
4.57500000E+00	-1.56000000E+02
4.57777778E+00	-3.90000000E+01
4.58055556E+00	2.00000000E+02
4.58333333E+00	4.94000000E+02
4.58611111E+00	8.16000000E+02
4.58888889E+00	2.18000000E+02
4.59166667E+00	3.74000000E+02
4.59444444E+00	1.29000000E+02
4.59722222E+00	-1.22000000E+02
4.60000000E+00	7.70000000E+01
4.60277778E+00	2.38000000E+02
4.60555556E+00	1.58000000E+02
4.60833333E+00	-1.53000000E+02
4.61111111E+00	-5.10000000E+01
4.61388889E+00	2.10000000E+02
4.61666667E+00	5.04000000E+02
4.61944444E+00	8.20000000E+02
4.62222222E+00	2.13000000E+02
4.62500000E+00	3.78000000E+02
4.62777778E+00	1.39000000E+02
4.63055556E+00	-1.12000000E+02
4.63333333E+00	7.70000000E+01
4.63611111E+00	2.52000000E+02
4.63888889E+00	1.73000000E+02
4.64166667E+00	-1.56000000E+02
4.64444444E+00	-3.90000000E+01
4.64722222E+00	2.00000000E+02
4.65000000E+00	4.99000000E+02
4.65277778E+00	8.15000000E+02
4.65555556E+00	2.08000000E+02
4.65833333E+00	3.78000000E+02
4.66111111E+00	1.34000000E+02
4.66388889E+00	-1.22000000E+02
4.66666667E+00	8.60000000E+01
4.66944444E+00	2.77000000E+02
4.67222222E+00	1.88000000E+02
4.67500000E+00	-1.63000000E+02
4.67777778E+00	-4.60000000E+01
4.68055556E+00	2.14000000E+02
4.68333333E+00	4.99000000E+02
4.68611111E+00	8.15000000E+02
4.68888889E+00	2.08000000E+02
4.69166667E+00	3.73000000E+02
4.69444444E+00	1.29000000E+02
4.69722222E+00	-1.27000000E+02
4.70000000E+00	9.70000000E+01
4.70277778E+00	2.96000000E+02
4.70555556E+00	1.97000000E+02
4.70833333E+00	-1.80000000E+02
4.71111111E+00	-4.80000000E+01
4.71388889E+00	2.34000000E+02
4.71666667E+00	4.90000000E+02
4.71944444E+00	7.99000000E+02
4.72222222E+00	1.99000000E+02
4.72500000E+00	3.73000000E+02
4.72777778E+00	1.25000000E+02
4.73055556E+00	-1.25000000E+02
4.73333333E+00	8.70000000E+01
4.73611111E+00	2.91000000E+02
4.73888889E+00	2.02000000E+02
4.74166667E+00	-1.96000000E+02
4.74444444E+00	-4.80000000E+01
4.74722222E+00	2.49000000E+02
4.75000000E+00	4.90000000E+02
4.75277778E+00	7.89000000E+02
4.75555556E+00	1.94000000E+02
4.75833333E+00	3.64000000E+02
4.76111111E+00	1.21000000E+02
4.76388889E+00	-1.29000000E+02
4.76666667E+00	6.30000000E+01
4.76944444E+00	3.06000000E+02
4.77222222E+00	2.41000000E+02
4.77500000E+00	-1.89000000E+02
4.77777778E+00	-5.60000000E+01
4.78055556E+00	2.49000000E+02
4.78333333E+00	4.90000000E+02
4.78611111E+00	7.79000000E+02
4.78888889E+00	1.90000000E+02
4.79166667E+00	3.64000000E+02
4.79444444E+00	1.16000000E+02
4.79722222E+00	-1.34000000E+02
4.80000000E+00	5.80000000E+01
4.80277778E+00	3.16000000E+02
4.80555556E+00	2.56000000E+02
4.80833333E+00	-1.84000000E+02
4.81111111E+00	-8.70000000E+01
4.81388889E+00	2.75000000E+02
4.81666667E+00	4.99000000E+02
4.81944444E+00	7.70000000E+02
4.82222222E+00	1.80000000E+02
4.82500000E+00	3.69000000E+02
4.82777778E+00	1.25000000E+02
4.83055556E+00	-1.20000000E+02
4.83333333E+00	6.80000000E+01
4.83611111E+00	3.31000000E+02
4.83888889E+00	2.61000000E+02
4.84166667E+00	-1.86000000E+02
4.84444444E+00	-9.70000000E+01
4.84722222E+00	2.88000000E+02
4.85000000E+00	5.14000000E+02
4.85277778E+00	7.65000000E+02
4.85555556E+00	1.80000000E+02
4.85833333E+00	3.63000000E+02
4.86111111E+00	1.25000000E+02
4.86388889E+00	-1.20000000E+02
4.86666667E+00	7.80000000E+01
4.86944444E+00	3.70000000E+02
4.87222222E+00	2.91000000E+02
4.87500000E+00	-1.98000000E+02
4.87777778E+00	-9.50000000E+01
4.88055556E+00	2.97000000E+02
4.88333333E+00	5.08000000E+02
4.88611111E+00	7.50000000E+02
4.88888889E+00	1.75000000E+02
4.89166667E+00	3.72000000E+02
4.89444444E+00	1.35000000E+02
4.89722222E+00	-1.15000000E+02
4.90000000E+00	8.70000000E+01
4.90277778E+00	3.95000000E+02
4.90555556E+00	3.06000000E+02
4.90833333E+00	-2.23000000E+02
4.91111111E+00	-1.04000000E+02
4.91388889E+00	3.32000000E+02
4.91666667E+00	4.89000000E+02
4.91944444E+00	7.39000000E+02
4.92222222E+00	1.85000000E+02
4.92500000E+00	3.82000000E+02
4.92777778E+00	1.45000000E+02
4.93055556E+00	-1.10000000E+02
4.93333333E+00	1.02000000E+02
4.93611111E+00	4.39000000E+02
4.93888889E+00	3.35000000E+02
4.94166667E+00	-2.40000000E+02
4.94444444E+00	-1.07000000E+02
4.94722222E+00	3.51000000E+02
4.95000000E+00	4.54000000E+02
4.95277778E+00	7.30000000E+02
4.95555556E+00	2.09000000E+02
4.95833333E+00	4.15000000E+02
4.96111111E+00	1.85000000E+02
4.96388889E+00	-7.00000000E+01
4.96666667E+00	1.26000000E+02
4.96944444E+00	4.58000000E+02
4.97222222E+00	3.30000000E+02
4.97500000E+00	-2.69000000E+02
4.97777778E+00	-1.14000000E+02
4.98055556E+00	3.88000000E+02
4.98333333E+00	4.45000000E+02
4.98611111E+00	7.35000000E+02
4.98888889E+00	2.29000000E+02
4.99166667E+00	4.64000000E+02
4.99444444E+00	2.34000000E+02
4.99722222E+00	-3.60000000E+01
5.00000000E+00	1.36000000E+02
5.00277778E+00	4.68000000E+02
5.00555556E+00	3.30000000E+02
5.00833333E+00	-2.91000000E+02
5.01111111E+00	-1.00000000E+02
5.01388889E+00	3.95000000E+02
5.01666667E+00	4.49000000E+02
5.01944444E+00	7.68000000E+02
5.02222222E+00	2.78000000E+02
5.02500000E+00	4.93000000E+02
5.02777778E+00	2.58000000E+02
5.03055556E+00	-1.60000000E+01
5.03333333E+00	1.56000000E+02
5.03611111E+00	5.12000000E+02
5.03888889E+00	3.55000000E+02
5.04166667E+00	-3.01000000E+02
5.04444444E+00	-9.50000000E+01
5.04722222E+00	4.00000000E+02
5.05000000E+00	4.45000000E+02
5.05277778E+00	8.26000000E+02
5.05555556E+00	3.46000000E+02
5.05833333E+00	5.42000000E+02
5.06111111E+00	3.02000000E+02
5.06388889E+00	7.00000000E+00
5.06666667E+00	1.85000000E+02
5.06944444E+00	4.88000000E+02
5.07222222E+00	3.01000000E+02
5.07500000E+00	-3.33000000E+02
5.07777778E+00	-9.70000000E+01
5.08055556E+00	4.34000000E+02
5.08333333E+00	4.34000000E+02
5.08611111E+00	8.69000000E+02
5.08888889E+00	4.14000000E+02
5.09166667E+00	6.15000000E+02
5.09444444E+00	3.61000000E+02
5.09722222E+00	5.10000000E+01
5.10000000E+00	2.00000000E+02
5.10277778E+00	4.29000000E+02
5.10555556E+00	2.28000000E+02
5.10833333E+00	-3.35000000E+02
5.11111111E+00	-5.60000000E+01
5.11388889E+00	3.95000000E+02
5.11666667E+00	4.05000000E+02
5.11944444E+00	9.23000000E+02
5.12222222E+00	5.07000000E+02
5.12500000E+00	6.79000000E+02
5.12777778E+00	4.09000000E+02
5.13055556E+00	8.00000000E+01
5.13333333E+00	2.39000000E+02
5.13611111E+00	3.56000000E+02
5.13888889E+00	1.17000000E+02
5.14166667E+00	-3.13000000E+02
5.14444444E+00	-1.20000000E+01
5.14722222E+00	3.29000000E+02
5.15000000E+00	4.00000000E+02
5.15277778E+00	1.00600000E+03
5.15555556E+00	6.19000000E+02
5.15833333E+00	7.76000000E+02
5.16111111E+00	4.78000000E+02
5.16388889E+00	1.29000000E+02
5.16666667E+00	2.87000000E+02
5.16944444E+00	2.48000000E+02
5.17222222E+00	-3.90000000E+01
5.17500000E+00	-2.96000000E+02
5.17777778E+00	6.20000000E+01
5.18055556E+00	2.37000000E+02
5.18333333E+00	4.19000000E+02
5.18611111E+00	1.15200000E+03
5.18888889E+00	7.66000000E+02
5.19166667E+00	8.59000000E+02
5.19444444E+00	5.17000000E+02
5.19722222E+00	1.46000000E+02
5.20000000E+00	3.12000000E+02
5.20277778E+00	1.22000000E+02
5.20555556E+00	-1.89000000E+02
5.20833333E+00	-2.68000000E+02
5.21111111E+00	1.63000000E+02
5.21388889E+00	1.04000000E+02
5.21666667E+00	4.44000000E+02
5.21944444E+00	1.33800000E+03
5.22222222E+00	9.51000000E+02
5.22500000E+00	9.47000000E+02
5.22777778E+00	5.31000000E+02
5.23055556E+00	1.26000000E+02
5.23333333E+00	3.46000000E+02
5.23611111E+00	6.80000000E+01
5.23888889E+00	-2.76000000E+02
5.24166667E+00	-2.17000000E+02
5.24444444E+00	2.51000000E+02
5.24722222E+00	-3.20000000E+01
5.25000000E+00	4.53000000E+02
5.25277778E+00	1.45000000E+03
5.25555556E+00	1.04400000E+03
5.25833333E+00	1.06400000E+03
5.26111111E+00	5.70000000E+02
5.26388889E+00	1.22000000E+02
5.26666667E+00	3.70000000E+02
5.26944444E+00	2.40000000E+01
5.27222222E+00	-3.45000000E+02
5.27500000E+00	-2.07000000E+02
5.27777778E+00	3.12000000E+02
5.28055556E+00	-1.03000000E+02
5.28333333E+00	4.53000000E+02
5.28611111E+00	1.52200000E+03
5.28888889E+00	1.10200000E+03
5.29166667E+00	1.09300000E+03
5.29444444E+00	5.51000000E+02
5.29722222E+00	8.70000000E+01
5.30000000E+00	3.51000000E+02
5.30277778E+00	-2.90000000E+01
5.30555556E+00	-3.80000000E+02
5.30833333E+00	-1.97000000E+02
5.31111111E+00	3.58000000E+02
5.31388889E+00	-1.59000000E+02
5.31666667E+00	4.34000000E+02
5.31944444E+00	1.53700000E+03
5.32222222E+00	1.10700000E+03
5.32500000E+00	1.10200000E+03
5.32777778E+00	5.27000000E+02
5.33055556E+00	6.80000000E+01
5.33333333E+00	3.26000000E+02
5.33611111E+00	-7.30000000E+01
5.33888889E+00	-4.00000000E+02
5.34166667E+00	-1.61000000E+02
5.34444444E+00	3.66000000E+02
5.34722222E+00	-2.04000000E+02
5.35000000E+00	3.75000000E+02
5.35277778E+00	1.39500000E+03
5.35555556E+00	9.61000000E+02
5.35833333E+00	1.07800000E+03
5.36111111E+00	5.02000000E+02
5.36388889E+00	5.80000000E+01
5.36666667E+00	3.12000000E+02
5.36944444E+00	-1.31000000E+02
5.37222222E+00	-4.44000000E+02
5.37500000E+00	-1.26000000E+02
5.37777778E+00	3.63000000E+02
5.38055556E+00	-2.36000000E+02
5.38333333E+00	3.22000000E+02
5.38611111E+00	1.17000000E+03
5.38888889E+00	7.66000000E+02
5.39166667E+00	9.41000000E+02
5.39444444E+00	4.00000000E+02
5.39722222E+00	0.00000000E+00
5.40000000E+00	3.26000000E+02
5.40277778E+00	-1.80000000E+02
5.40555556E+00	-5.07000000E+02
5.40833333E+00	-9.00000000E+01
5.41111111E+00	3.78000000E+02
5.41388889E+00	-2.87000000E+02
5.41666667E+00	2.52000000E+02
5.41944444E+00	9.35000000E+02
5.42222222E+00	5.75000000E+02
5.42500000E+00	7.75000000E+02
5.42777778E+00	3.02000000E+02
5.43055556E+00	-4.70000000E+01
5.43333333E+00	3.22000000E+02
5.43611111E+00	-2.24000000E+02
5.43888889E+00	-5.46000000E+02
5.44166667E+00	-7.30000000E+01
5.44444444E+00	4.17000000E+02
5.44722222E+00	-3.43000000E+02
5.45000000E+00	1.94000000E+02
5.45277778E+00	7.59000000E+02
5.45555556E+00	4.19000000E+02
5.45833333E+00	6.34000000E+02
5.46111111E+00	2.14000000E+02
5.46388889E+00	-9.10000000E+01
5.46666667E+00	3.22000000E+02
5.46944444E+00	-2.53000000E+02
5.47222222E+00	-5.75000000E+02
5.47500000E+00	-4.80000000E+01
5.47777778E+00	4.34000000E+02
5.48055556E+00	-3.84000000E+02
5.48333333E+00	1.50000000E+02
5.48611111E+00	6.61000000E+02
5.48888889E+00	3.17000000E+02
5.49166667E+00	5.06000000E+02
5.49444444E+00	1.36000000E+02
5.49722222E+00	-1.45000000E+02
5.50000000E+00	2.87000000E+02
5.50277778E+00	-2.83000000E+02
5.50555556E+00	-5.70000000E+02
5.50833333E+00	-3.40000000E+01
5.51111111E+00	4.48000000E+02
5.51388889E+00	-4.13000000E+02
5.51666667E+00	1.35000000E+02
5.51944444E+00	5.83000000E+02
5.52222222E+00	2.14000000E+02
5.52500000E+00	4.33000000E+02
5.52777778E+00	1.02000000E+02
5.53055556E+00	-1.50000000E+02
5.53333333E+00	2.58000000E+02
5.53611111E+00	-3.30000000E+02
5.53888889E+00	-5.90000000E+02
5.54166667E+00	-2.00000000E+00
5.54444444E+00	4.29000000E+02
5.54722222E+00	-4.26000000E+02
5.55000000E+00	1.35000000E+02
5.55277778E+00	4.71000000E+02
5.55555556E+00	9.20000000E+01
5.55833333E+00	3.40000000E+02
5.56111111E+00	3.90000000E+01
5.56388889E+00	-1.89000000E+02
5.56666667E+00	2.24000000E+02
5.56944444E+00	-3.55000000E+02
5.57222222E+00	-5.80000000E+02
5.57500000E+00	3.50000000E+01
5.57777778E+00	4.23000000E+02
5.58055556E+00	-4.61000000E+02
5.58333333E+00	1.50000000E+02
5.58611111E+00	3.39000000E+02
5.58888889E+00	-4.30000000E+01
5.59166667E+00	2.32000000E+02
5.59444444E+00	-2.40000000E+01
5.59722222E+00	-2.33000000E+02
5.60000000E+00	1.65000000E+02
5.60277778E+00	-3.69000000E+02
5.60555556E+00	-5.36000000E+02
5.60833333E+00	6.40000000E+01
5.61111111E+00	4.01000000E+02
5.61388889E+00	-4.68000000E+02
5.61666667E+00	1.69000000E+02
5.61944444E+00	1.88000000E+02
5.62222222E+00	-2.00000000E+02
5.62500000E+00	1.24000000E+02
5.62777778E+00	-8.70000000E+01
5.63055556E+00	-2.72000000E+02
5.63333333E+00	1.31000000E+02
5.63611111E+00	-3.60000000E+02
5.63888889E+00	-4.92000000E+02
5.64166667E+00	1.01000000E+02
5.64444444E+00	3.50000000E+02
5.64722222E+00	-4.54000000E+02
5.65000000E+00	2.08000000E+02
5.65277778E+00	6.00000000E+01
5.65555556E+00	-3.51000000E+02
5.65833333E+00	-2.00000000E+00
5.66111111E+00	-1.69000000E+02
5.66388889E+00	-3.19000000E+02
5.66666667E+00	9.20000000E+01
5.66944444E+00	-3.84000000E+02
5.67222222E+00	-4.77000000E+02
5.67500000E+00	1.13000000E+02
5.67777778E+00	3.11000000E+02
5.68055556E+00	-4.27000000E+02
5.68333333E+00	3.35000000E+02
5.68611111E+00	4.00000000E+01
5.68888889E+00	-4.29000000E+02
5.69166667E+00	-1.14000000E+02
5.69444444E+00	-2.43000000E+02
5.69722222E+00	-3.72000000E+02
5.70000000E+00	5.30000000E+01
5.70277778E+00	-3.89000000E+02
5.70555556E+00	-4.43000000E+02
5.70833333E+00	1.45000000E+02
5.71111111E+00	2.84000000E+02
5.71388889E+00	-4.32000000E+02
5.71666667E+00	3.94000000E+02
5.71944444E+00	-1.70000000E+01
5.72222222E+00	-5.27000000E+02
5.72500000E+00	-1.92000000E+02
5.72777778E+00	-3.01000000E+02
5.73055556E+00	-4.21000000E+02
5.73333333E+00	1.90000000E+01
5.73611111E+00	-3.79000000E+02
5.73888889E+00	-3.99000000E+02
5.74166667E+00	1.67000000E+02
5.74444444E+00	2.47000000E+02
5.74722222E+00	-4.17000000E+02
5.75000000E+00	4.52000000E+02
5.75277778E+00	-8.20000000E+01
5.75555556E+00	-6.10000000E+02
5.75833333E+00	-2.80000000E+02
5.76111111E+00	-3.69000000E+02
5.76388889E+00	-4.70000000E+02
5.76666667E+00	0.00000000E+00
5.76944444E+00	-3.79000000E+02
5.77222222E+00	-3.79000000E+02
5.77500000E+00	1.79000000E+02
5.77777778E+00	2.08000000E+02
5.78055556E+00	-3.90000000E+02
5.78333333E+00	5.50000000E+02
5.78611111E+00	-8.20000000E+01
5.78888889E+00	-6.49000000E+02
5.79166667E+00	-3.53000000E+02
5.79444444E+00	-4.23000000E+02
5.79722222E+00	-5.09000000E+02
5.80000000E+00	-3.40000000E+01
5.80277778E+00	-3.55000000E+02
5.80555556E+00	-3.19000000E+02
5.80833333E+00	1.89000000E+02
5.81111111E+00	1.89000000E+02
5.81388889E+00	-3.80000000E+02
5.81666667E+00	6.43000000E+02
5.81944444E+00	-7.30000000E+01
5.82222222E+00	-6.78000000E+02
5.82500000E+00	-4.02000000E+02
5.82777778E+00	-4.67000000E+02
5.83055556E+00	-5.48000000E+02
5.83333333E+00	-6.80000000E+01
5.83611111E+00	-3.21000000E+02
5.83888889E+00	-2.51000000E+02
5.84166667E+00	1.93000000E+02
5.84444444E+00	1.41000000E+02
5.84722222E+00	-3.39000000E+02
5.85000000E+00	7.21000000E+02
5.85277778E+00	-4.80000000E+01
5.85555556E+00	-6.73000000E+02
5.85833333E+00	-4.41000000E+02
5.86111111E+00	-5.11000000E+02
5.86388889E+00	-5.87000000E+02
5.86666667E+00	-1.07000000E+02
5.86944444E+00	-2.86000000E+02
5.87222222E+00	-1.78000000E+02
5.87500000E+00	1.93000000E+02
5.87777778E+00	9.00000000E+01
5.88055556E+00	-2.88000000E+02
5.88333333E+00	7.99000000E+02
5.88611111E+00	-9.00000000E+00
5.88888889E+00	-6.53000000E+02
5.89166667E+00	-4.50000000E+02
5.89444444E+00	-5.26000000E+02
5.89722222E+00	-6.06000000E+02
5.90000000E+00	-1.46000000E+02
5.90277778E+00	-2.72000000E+02
5.90555556E+00	-1.25000000E+02
5.90833333E+00	1.95000000E+02
5.91111111E+00	3.30000000E+01
5.91388889E+00	-2.33000000E+02
5.91666667E+00	9.06000000E+02
5.91944444E+00	3.80000000E+01
5.92222222E+00	-6.29000000E+02
5.92500000E+00	-4.42000000E+02
5.92777778E+00	-5.35000000E+02
5.93055556E+00	-6.20000000E+02
5.93333333E+00	-1.61000000E+02
5.93611111E+00	-2.43000000E+02
5.93888889E+00	-8.00000000E+01
5.94166667E+00	2.07000000E+02
5.94444444E+00	-1.10000000E+01
5.94722222E+00	-1.99000000E+02
5.95000000E+00	9.88000000E+02
5.95277778E+00	6.80000000E+01
5.95555556E+00	-6.05000000E+02
5.95833333E+00	-4.32000000E+02
5.96111111E+00	-5.50000000E+02
5.96388889E+00	-6.45000000E+02
5.96666667E+00	-1.65000000E+02
5.96944444E+00	-2.03000000E+02
5.97222222E+00	-3.70000000E+01
5.97500000E+00	2.00000000E+02
5.97777778E+00	-4.10000000E+01
5.98055556E+00	-1.62000000E+02
5.98333333E+00	1.01300000E+03
5.98611111E+00	7.70000000E+01
5.98888889E+00	-5.95000000E+02
5.99166667E+00	-4.12000000E+02
5.99444444E+00	-5.35000000E+02
5.99722222E+00	-6.35000000E+02
6.00000000E+00	-1.85000000E+02
6.00277778E+00	-1.39000000E+02
6.00555556E+00	4.50000000E+01
6.00833333E+00	1.83000000E+02
6.01111111E+00	-6.50000000E+01
6.01388889E+00	-1.21000000E+02
6.01666667E+00	9.49000000E+02
6.01944444E+00	7.20000000E+01
6.02222222E+00	-5.85000000E+02
6.02500000E+00	-3.93000000E+02
6.02777778E+00	-5.21000000E+02
6.03055556E+00	-6.25000000E+02
6.03333333E+00	-1.90000000E+02
6.03611111E+00	-9.50000000E+01
6.03888889E+00	9.40000000E+01
6.04166667E+00	1.62000000E+02
6.04444444E+00	-1.15000000E+02
6.04722222E+00	-4.60000000E+01
6.05000000E+00	8.76000000E+02
6.05277778E+00	6.70000000E+01
6.05555556E+00	-5.61000000E+02
6.05833333E+00	-3.73000000E+02
6.06111111E+00	-5.01000000E+02
6.06388889E+00	-6.10000000E+02
6.06666667E+00	-1.90000000E+02
6.06944444E+00	-4.10000000E+01
6.07222222E+00	1.47000000E+02
6.07500000E+00	1.42000000E+02
6.07777778E+00	-1.42000000E+02
6.08055556E+00	0.00000000E+00
6.08333333E+00	8.52000000E+02
6.08611111E+00	7.60000000E+01
6.08888889E+00	-5.36000000E+02
6.09166667E+00	-3.34000000E+02
6.09444444E+00	-4.62000000E+02
6.09722222E+00	-5.76000000E+02
6.10000000E+00	-1.85000000E+02
6.10277778E+00	1.10000000E+01
6.10555556E+00	1.97000000E+02
6.10833333E+00	1.16000000E+02
6.11111111E+00	-1.69000000E+02
6.11388889E+00	5.20000000E+01
6.11666667E+00	8.42000000E+02
6.11944444E+00	9.00000000E+01
6.12222222E+00	-5.12000000E+02
6.12500000E+00	-3.01000000E+02
6.12777778E+00	-4.32000000E+02
6.13055556E+00	-5.55000000E+02
6.13333333E+00	-1.85000000E+02
6.13611111E+00	6.50000000E+01
6.13888889E+00	2.50000000E+02
6.14166667E+00	8.60000000E+01
6.14444444E+00	-1.91000000E+02
6.14722222E+00	1.04000000E+02
6.15000000E+00	7.77000000E+02
6.15277778E+00	9.00000000E+01
6.15555556E+00	-4.88000000E+02
6.15833333E+00	-2.72000000E+02
6.16111111E+00	-4.07000000E+02
6.16388889E+00	-5.25000000E+02
6.16666667E+00	-1.95000000E+02
6.16944444E+00	8.90000000E+01
6.17222222E+00	2.85000000E+02
6.17500000E+00	6.00000000E+01
6.17777778E+00	-2.18000000E+02
6.18055556E+00	1.58000000E+02
6.18333333E+00	6.99000000E+02
6.18611111E+00	8.90000000E+01
6.18888889E+00	-4.68000000E+02
6.19166667E+00	-2.38000000E+02
6.19444444E+00	-3.68000000E+02
6.19722222E+00	-4.91000000E+02
6.20000000E+00	-1.95000000E+02
6.20277778E+00	9.90000000E+01
6.20555556E+00	2.94000000E+02
6.20833333E+00	5.20000000E+01
6.21111111E+00	-2.40000000E+02
6.21388889E+00	1.87000000E+02
6.21666667E+00	6.46000000E+02
6.21944444E+00	1.18000000E+02
6.22222222E+00	-4.29000000E+02
6.22500000E+00	-2.13000000E+02
6.22777778E+00	-3.44000000E+02
6.23055556E+00	-4.72000000E+02
6.23333333E+00	-1.70000000E+02
6.23611111E+00	8.50000000E+01
6.23888889E+00	2.55000000E+02
6.24166667E+00	4.70000000E+01
6.24444444E+00	-2.45000000E+02
6.24722222E+00	1.97000000E+02
6.25000000E+00	6.11000000E+02
6.25277778E+00	1.53000000E+02
6.25555556E+00	-3.85000000E+02
6.25833333E+00	-1.66000000E+02
6.26111111E+00	-3.00000000E+02
6.26388889E+00	-4.38000000E+02
6.26666667E+00	-1.50000000E+02
6.26944444E+00	1.05000000E+02
6.27222222E+00	2.55000000E+02
6.27500000E+00	4.20000000E+01
6.27777778E+00	-2.13000000E+02
6.28055556E+00	1.70000000E+02
6.28333333E+00	5.53000000E+02
6.28611111E+00	1.82000000E+02
6.28888889E+00	-3.51000000E+02
6.29166667E+00	-1.17000000E+02
6.29444444E+00	-2.56000000E+02
6.29722222E+00	-4.03000000E+02
6.30000000E+00	-1.21000000E+02
6.30277778E+00	1.29000000E+02
6.30555556E+00	2.50000000E+02
6.30833333E+00	2.20000000E+01
6.31111111E+00	-2.03000000E+02
6.31388889E+00	1.80000000E+02
6.31666667E+00	4.45000000E+02
6.31944444E+00	2.11000000E+02
6.32222222E+00	-3.12000000E+02
6.32500000E+00	-8.30000000E+01
6.32777778E+00	-2.32000000E+02
6.33055556E+00	-3.89000000E+02
6.33333333E+00	-7.20000000E+01
6.33611111E+00	1.49000000E+02
6.33888889E+00	2.21000000E+02
6.34166667E+00	-3.00000000E+00
6.34444444E+00	-1.85000000E+02
6.34722222E+00	1.91000000E+02
6.35000000E+00	3.48000000E+02
6.35277778E+00	2.26000000E+02
6.35555556E+00	-2.85000000E+02
6.35833333E+00	-3.90000000E+01
6.36111111E+00	-1.92000000E+02
6.36388889E+00	-3.49000000E+02
6.36666667E+00	-3.80000000E+01
6.36944444E+00	1.64000000E+02
6.37222222E+00	2.02000000E+02
6.37500000E+00	-3.70000000E+01
6.37777778E+00	-1.46000000E+02
6.38055556E+00	1.86000000E+02
6.38333333E+00	2.89000000E+02
6.38611111E+00	2.49000000E+02
6.38888889E+00	-2.56000000E+02
6.39166667E+00	-1.40000000E+01
6.39444444E+00	-1.72000000E+02
6.39722222E+00	-3.39000000E+02
6.40000000E+00	-8.00000000E+00
6.40277778E+00	1.78000000E+02
6.40555556E+00	1.87000000E+02
6.40833333E+00	-6.10000000E+01
6.41111111E+00	-1.19000000E+02
6.41388889E+00	1.83000000E+02
6.41666667E+00	2.36000000E+02
6.41944444E+00	2.93000000E+02
6.42222222E+00	-2.07000000E+02
6.42500000E+00	9.00000000E+00
6.42777778E+00	-1.53000000E+02
6.43055556E+00	-3.19000000E+02
6.43333333E+00	1.00000000E+00
6.43611111E+00	1.93000000E+02
6.43888889E+00	1.91000000E+02
6.44166667E+00	-8.30000000E+01
6.44444444E+00	-9.70000000E+01
6.44722222E+00	1.83000000E+02
6.45000000E+00	1.87000000E+02
6.45277778E+00	3.17000000E+02
6.45555556E+00	-1.83000000E+02
6.45833333E+00	5.80000000E+01
6.46111111E+00	-1.09000000E+02
6.46388889E+00	-2.80000000E+02
6.46666667E+00	1.00000000E+00
6.46944444E+00	1.78000000E+02
6.47222222E+00	1.76000000E+02
6.47500000E+00	-9.50000000E+01
6.47777778E+00	-9.30000000E+01
6.48055556E+00	1.93000000E+02
6.48333333E+00	1.61000000E+02
6.48611111E+00	3.47000000E+02
6.48888889E+00	-1.54000000E+02
6.49166667E+00	8.20000000E+01
6.49444444E+00	-8.40000000E+01
6.49722222E+00	-2.61000000E+02
6.50000000E+00	2.00000000E+01
6.50277778E+00	1.88000000E+02
6.50555556E+00	1.67000000E+02
6.50833333E+00	-8.80000000E+01
6.51111111E+00	-8.60000000E+01
6.51388889E+00	1.78000000E+02
6.51666667E+00	1.86000000E+02
6.51944444E+00	4.09000000E+02
6.52222222E+00	-1.00000000E+02
6.52500000E+00	1.07000000E+02
6.52777778E+00	-6.50000000E+01
6.53055556E+00	-2.46000000E+02
6.53333333E+00	3.00000000E+01
6.53611111E+00	2.17000000E+02
6.53888889E+00	1.87000000E+02
6.54166667E+00	-1.03000000E+02
6.54444444E+00	-7.10000000E+01
6.54722222E+00	1.78000000E+02
6.55000000E+00	2.25000000E+02
6.55277778E+00	4.62000000E+02
6.55555556E+00	-6.10000000E+01
6.55833333E+00	1.50000000E+02
6.56111111E+00	-3.10000000E+01
6.56388889E+00	-2.17000000E+02
6.56666667E+00	4.00000000E+01
6.56944444E+00	2.42000000E+02
6.57222222E+00	2.01000000E+02
6.57500000E+00	-1.22000000E+02
6.57777778E+00	-7.60000000E+01
6.58055556E+00	2.03000000E+02
6.58333333E+00	2.64000000E+02
6.58611111E+00	5.16000000E+02
6.58888889E+00	-2.20000000E+01
6.59166667E+00	1.79000000E+02
6.59444444E+00	-6.00000000E+00
6.59722222E+00	-2.05000000E+02
6.60000000E+00	8.30000000E+01
6.60277778E+00	2.81000000E+02
6.60555556E+00	1.96000000E+02
6.60833333E+00	-1.39000000E+02
6.61111111E+00	-7.90000000E+01
6.61388889E+00	2.22000000E+02
6.61666667E+00	3.13000000E+02
6.61944444E+00	5.79000000E+02
6.62222222E+00	2.10000000E+01
6.62500000E+00	2.13000000E+02
6.62777778E+00	1.20000000E+01
6.63055556E+00	-1.86000000E+02
6.63333333E+00	9.80000000E+01
6.63611111E+00	3.15000000E+02
6.63888889E+00	2.16000000E+02
6.64166667E+00	-1.81000000E+02
6.64444444E+00	-5.40000000E+01
6.64722222E+00	2.40000000E+02
6.65000000E+00	3.66000000E+02
6.65277778E+00	6.38000000E+02
6.65555556E+00	7.00000000E+01
6.65833333E+00	2.52000000E+02
6.66111111E+00	3.70000000E+01
6.66388889E+00	-1.71000000E+02
6.66666667E+00	1.08000000E+02
6.66944444E+00	3.25000000E+02
6.67222222E+00	2.16000000E+02
6.67500000E+00	-2.05000000E+02
6.67777778E+00	-5.70000000E+01
6.68055556E+00	2.67000000E+02
6.68333333E+00	4.15000000E+02
6.68611111E+00	6.96000000E+02
6.68888889E+00	1.19000000E+02
6.69166667E+00	2.86000000E+02
6.69444444E+00	6.10000000E+01
6.69722222E+00	-1.56000000E+02
6.70000000E+00	1.03000000E+02
6.70277778E+00	3.20000000E+02
6.70555556E+00	2.16000000E+02
6.70833333E+00	-2.15000000E+02
6.71111111E+00	-5.20000000E+01
6.71388889E+00	2.72000000E+02
6.71666667E+00	4.40000000E+02
6.71944444E+00	7.35000000E+02
6.72222222E+00	1.53000000E+02
6.72500000E+00	3.35000000E+02
6.72777778E+00	1.05000000E+02
6.73055556E+00	-1.13000000E+02
6.73333333E+00	9.30000000E+01
6.73611111E+00	3.10000000E+02
6.73888889E+00	2.16000000E+02
6.74166667E+00	-2.10000000E+02
6.74444444E+00	-5.40000000E+01
6.74722222E+00	2.70000000E+02
6.75000000E+00	4.49000000E+02
6.75277778E+00	7.49000000E+02
6.75555556E+00	1.67000000E+02
6.75833333E+00	3.60000000E+02
6.76111111E+00	1.20000000E+02
6.76388889E+00	-1.08000000E+02
6.76666667E+00	1.03000000E+02
6.76944444E+00	3.10000000E+02
6.77222222E+00	2.06000000E+02
6.77500000E+00	-2.00000000E+02
6.77777778E+00	-5.90000000E+01
6.78055556E+00	2.65000000E+02
6.78333333E+00	4.64000000E+02
6.78611111E+00	7.63000000E+02
6.78888889E+00	1.77000000E+02
6.79166667E+00	3.68000000E+02
6.79444444E+00	1.25000000E+02
6.79722222E+00	-1.08000000E+02
6.80000000E+00	8.80000000E+01
6.80277778E+00	3.00000000E+02
6.80555556E+00	2.11000000E+02
6.80833333E+00	-2.05000000E+02
6.81111111E+00	-4.90000000E+01
6.81388889E+00	2.60000000E+02
6.81666667E+00	4.64000000E+02
6.81944444E+00	7.68000000E+02
6.82222222E+00	1.82000000E+02
6.82500000E+00	3.83000000E+02
6.82777778E+00	1.34000000E+02
6.83055556E+00	-9.20000000E+01
6.83333333E+00	8.80000000E+01
6.83611111E+00	3.05000000E+02
6.83888889E+00	2.16000000E+02
6.84166667E+00	-1.93000000E+02
6.84444444E+00	-5.90000000E+01
6.84722222E+00	2.57000000E+02
6.85000000E+00	4.64000000E+02
6.85277778E+00	7.73000000E+02
6.85555556E+00	1.82000000E+02
6.85833333E+00	3.88000000E+02
6.86111111E+00	1.39000000E+02
6.86388889E+00	-9.20000000E+01
6.86666667E+00	1.03000000E+02
6.86944444E+00	3.15000000E+02
6.87222222E+00	2.11000000E+02
6.87500000E+00	-1.95000000E+02
6.87777778E+00	-6.20000000E+01
6.88055556E+00	2.62000000E+02
6.88333333E+00	4.69000000E+02
6.88611111E+00	7.82000000E+02
6.88888889E+00	1.92000000E+02
6.89166667E+00	3.87000000E+02
6.89444444E+00	1.34000000E+02
6.89722222E+00	-9.70000000E+01
6.90000000E+00	1.13000000E+02
6.90277778E+00	3.16000000E+02
6.90555556E+00	2.01000000E+02
6.90833333E+00	-2.08000000E+02
6.91111111E+00	-5.20000000E+01
6.91388889E+00	2.66000000E+02
6.91666667E+00	4.59000000E+02
6.91944444E+00	7.81000000E+02
6.92222222E+00	1.82000000E+02
6.92500000E+00	3.97000000E+02
6.92777778E+00	1.44000000E+02
6.93055556E+00	-8.70000000E+01
6.93333333E+00	1.23000000E+02
6.93611111E+00	3.21000000E+02
6.93888889E+00	1.96000000E+02
6.94166667E+00	-2.13000000E+02
6.94444444E+00	-4.20000000E+01
6.94722222E+00	2.61000000E+02
6.95000000E+00	4.59000000E+02
6.95277778E+00	7.81000000E+02
6.95555556E+00	1.87000000E+02
6.95833333E+00	3.92000000E+02
6.96111111E+00	1.34000000E+02
6.96388889E+00	-1.02000000E+02
6.96666667E+00	1.23000000E+02
6.96944444E+00	3.30000000E+02
6.97222222E+00	2.06000000E+02
6.97500000E+00	-2.20000000E+02
6.97777778E+00	-3.50000000E+01
6.98055556E+00	2.61000000E+02
6.98333333E+00	4.64000000E+02
6.98611111E+00	7.91000000E+02
6.98888889E+00	2.02000000E+02
6.99166667E+00	3.92000000E+02
6.99444444E+00	1.34000000E+02
6.99722222E+00	-9.70000000E+01
7.00000000E+00	1.13000000E+02
7.00277778E+00	3.26000000E+02
7.00555556E+00	2.11000000E+02
7.00833333E+00	-2.25000000E+02
7.01111111E+00	-4.00000000E+01
7.01388889E+00	2.71000000E+02
7.01666667E+00	4.58000000E+02
7.01944444E+00	7.91000000E+02
7.02222222E+00	1.97000000E+02
7.02500000E+00	4.06000000E+02
7.02777778E+00	1.55000000E+02
7.03055556E+00	-8.00000000E+01
7.03333333E+00	9.80000000E+01
7.03611111E+00	3.16000000E+02
7.03888889E+00	2.16000000E+02
7.04166667E+00	-2.17000000E+02
7.04444444E+00	-4.70000000E+01
7.04722222E+00	2.71000000E+02
7.05000000E+00	4.58000000E+02
7.05277778E+00	7.96000000E+02
7.05555556E+00	2.02000000E+02
7.05833333E+00	4.01000000E+02
7.06111111E+00	1.50000000E+02
7.06388889E+00	-8.50000000E+01
7.06666667E+00	1.18000000E+02
7.06944444E+00	3.06000000E+02
7.07222222E+00	1.87000000E+02
7.07500000E+00	-2.05000000E+02
7.07777778E+00	-5.70000000E+01
7.08055556E+00	2.68000000E+02
7.08333333E+00	4.58000000E+02
7.08611111E+00	8.00000000E+02
7.08888889E+00	2.06000000E+02
7.09166667E+00	4.06000000E+02
7.09444444E+00	1.55000000E+02
7.09722222E+00	-7.50000000E+01
7.10000000E+00	9.80000000E+01
7.10277778E+00	2.96000000E+02
7.10555556E+00	1.96000000E+02
7.10833333E+00	-2.11000000E+02
7.11111111E+00	-3.20000000E+01
7.11388889E+00	2.49000000E+02
7.11666667E+00	4.58000000E+02
7.11944444E+00	7.99000000E+02
7.12222222E+00	2.02000000E+02
7.12500000E+00	4.21000000E+02
7.12777778E+00	1.65000000E+02
7.13055556E+00	-7.00000000E+01
7.13333333E+00	1.03000000E+02
7.13611111E+00	3.16000000E+02
7.13888889E+00	2.11000000E+02
7.14166667E+00	-1.96000000E+02
7.14444444E+00	-4.70000000E+01
7.14722222E+00	2.49000000E+02
7.15000000E+00	4.63000000E+02
7.15277778E+00	8.04000000E+02
7.15555556E+00	2.06000000E+02
7.15833333E+00	4.11000000E+02
7.16111111E+00	1.55000000E+02
7.16388889E+00	-8.00000000E+01
7.16666667E+00	1.27000000E+02
7.16944444E+00	3.21000000E+02
7.17222222E+00	1.92000000E+02
7.17500000E+00	-2.09000000E+02
7.17777778E+00	-5.20000000E+01
7.18055556E+00	2.66000000E+02
7.18333333E+00	4.63000000E+02
7.18611111E+00	8.09000000E+02
7.18888889E+00	2.11000000E+02
7.19166667E+00	4.16000000E+02
7.19444444E+00	1.55000000E+02
7.19722222E+00	-8.00000000E+01
7.20000000E+00	1.23000000E+02
7.20277778E+00	3.35000000E+02
7.20555556E+00	2.11000000E+02
7.20833333E+00	-2.23000000E+02
7.21111111E+00	-3.00000000E+01
7.21388889E+00	2.58000000E+02
7.21666667E+00	4.57000000E+02
7.21944444E+00	8.04000000E+02
7.22222222E+00	2.02000000E+02
7.22500000E+00	4.20000000E+02
7.22777778E+00	1.60000000E+02
7.23055556E+00	-7.50000000E+01
7.23333333E+00	1.18000000E+02
7.23611111E+00	3.45000000E+02
7.23888889E+00	2.26000000E+02
7.24166667E+00	-2.28000000E+02
7.24444444E+00	-4.20000000E+01
7.24722222E+00	2.76000000E+02
7.25000000E+00	4.57000000E+02
7.25277778E+00	8.08000000E+02
7.25555556E+00	2.11000000E+02
7.25833333E+00	4.10000000E+02
7.26111111E+00	1.50000000E+02
7.26388889E+00	-8.90000000E+01
7.26666667E+00	1.32000000E+02
7.26944444E+00	3.35000000E+02
7.27222222E+00	2.01000000E+02
7.27500000E+00	-2.31000000E+02
7.27777778E+00	-5.20000000E+01
7.28055556E+00	2.88000000E+02
7.28333333E+00	4.57000000E+02
7.28611111E+00	8.03000000E+02
7.28888889E+00	2.11000000E+02
7.29166667E+00	4.20000000E+02
7.29444444E+00	1.60000000E+02
7.29722222E+00	-7.90000000E+01
7.30000000E+00	1.23000000E+02
7.30277778E+00	3.21000000E+02
7.30555556E+00	1.97000000E+02
7.30833333E+00	-2.33000000E+02
7.31111111E+00	-3.20000000E+01
7.31388889E+00	2.71000000E+02
7.31666667E+00	4.52000000E+02
7.31944444E+00	7.93000000E+02
7.32222222E+00	2.06000000E+02
7.32500000E+00	4.20000000E+02
7.32777778E+00	1.60000000E+02
7.33055556E+00	-7.90000000E+01
7.33333333E+00	9.80000000E+01
7.33611111E+00	3.16000000E+02
7.33888889E+00	2.17000000E+02
7.34166667E+00	-2.21000000E+02
7.34444444E+00	-3.50000000E+01
7.34722222E+00	2.61000000E+02
7.35000000E+00	4.62000000E+02
7.35277778E+00	8.07000000E+02
7.35555556E+00	2.16000000E+02
7.35833333E+00	4.15000000E+02
7.36111111E+00	1.55000000E+02
7.36388889E+00	-8.40000000E+01
7.36666667E+00	1.08000000E+02
7.36944444E+00	3.22000000E+02
7.37222222E+00	2.12000000E+02
7.37500000E+00	-2.06000000E+02
7.37777778E+00	-5.70000000E+01
7.38055556E+00	2.69000000E+02
7.38333333E+00	4.57000000E+02
7.38611111E+00	8.07000000E+02
7.38888889E+00	2.11000000E+02
7.39166667E+00	4.30000000E+02
7.39444444E+00	1.69000000E+02
7.39722222E+00	-6.90000000E+01
7.40000000E+00	1.23000000E+02
7.40277778E+00	3.22000000E+02
7.40555556E+00	1.97000000E+02
7.40833333E+00	-2.14000000E+02
7.41111111E+00	-4.90000000E+01
7.41388889E+00	2.69000000E+02
7.41666667E+00	4.57000000E+02
7.41944444E+00	8.07000000E+02
7.42222222E+00	2.11000000E+02
7.42500000E+00	4.29000000E+02
7.42777778E+00	1.65000000E+02
7.43055556E+00	-7.40000000E+01
7.43333333E+00	1.23000000E+02
7.43611111E+00	3.27000000E+02
7.43888889E+00	2.02000000E+02
7.44166667E+00	-2.21000000E+02
7.44444444E+00	-3.50000000E+01
7.44722222E+00	2.62000000E+02
7.45000000E+00	4.57000000E+02
7.45277778E+00	8.07000000E+02
7.45555556E+00	2.11000000E+02
7.45833333E+00	4.24000000E+02
7.46111111E+00	1.60000000E+02
7.46388889E+00	-7.40000000E+01
7.46666667E+00	1.27000000E+02
7.46944444E+00	3.36000000E+02
7.47222222E+00	2.07000000E+02
7.47500000E+00	-2.23000000E+02
7.47777778E+00	-3.70000000E+01
7.48055556E+00	2.67000000E+02
7.48333333E+00	4.57000000E+02
7.48611111E+00	8.06000000E+02
7.48888889E+00	2.06000000E+02
7.49166667E+00	4.24000000E+02
7.49444444E+00	1.61000000E+02
7.49722222E+00	-7.20000000E+01
7.50000000E+00	1.27000000E+02
7.50277778E+00	3.36000000E+02
7.50555556E+00	2.07000000E+02
7.50833333E+00	-2.31000000E+02
7.51111111E+00	-3.70000000E+01
7.51388889E+00	2.74000000E+02
7.51666667E+00	4.52000000E+02
7.51944444E+00	8.06000000E+02
7.52222222E+00	2.11000000E+02
7.52500000E+00	4.18000000E+02
7.52777778E+00	1.56000000E+02
7.53055556E+00	-8.20000000E+01
7.53333333E+00	1.27000000E+02
7.53611111E+00	3.46000000E+02
7.53888889E+00	2.17000000E+02
7.54166667E+00	-2.31000000E+02
7.54444444E+00	-3.70000000E+01
7.54722222E+00	2.74000000E+02
7.55000000E+00	4.51000000E+02
7.55277778E+00	8.06000000E+02
7.55555556E+00	2.16000000E+02
7.55833333E+00	4.18000000E+02
7.56111111E+00	1.56000000E+02
7.56388889E+00	-8.20000000E+01
7.56666667E+00	1.18000000E+02
7.56944444E+00	3.36000000E+02
7.57222222E+00	2.18000000E+02
7.57500000E+00	-2.36000000E+02
7.57777778E+00	-4.20000000E+01
7.58055556E+00	2.84000000E+02
7.58333333E+00	4.46000000E+02
7.58611111E+00	8.01000000E+02
7.58888889E+00	2.11000000E+02
7.59166667E+00	4.28000000E+02
7.59444444E+00	1.66000000E+02
7.59722222E+00	-6.70000000E+01
7.60000000E+00	1.23000000E+02
7.60277778E+00	3.23000000E+02
7.60555556E+00	1.98000000E+02
7.60833333E+00	-2.26000000E+02
7.61111111E+00	-4.70000000E+01
7.61388889E+00	2.79000000E+02
7.61666667E+00	4.46000000E+02
7.61944444E+00	8.00000000E+02
7.62222222E+00	2.11000000E+02
7.62500000E+00	4.23000000E+02
7.62777778E+00	1.66000000E+02
7.63055556E+00	-7.20000000E+01
7.63333333E+00	1.18000000E+02
7.63611111E+00	3.23000000E+02
7.63888889E+00	2.03000000E+02
7.64166667E+00	-2.21000000E+02
7.64444444E+00	-3.50000000E+01
7.64722222E+00	2.62000000E+02
7.65000000E+00	4.46000000E+02
7.65277778E+00	8.00000000E+02
7.65555556E+00	2.11000000E+02
7.65833333E+00	4.23000000E+02
7.66111111E+00	1.70000000E+02
7.66388889E+00	-7.20000000E+01
7.66666667E+00	1.18000000E+02
7.66944444E+00	3.23000000E+02
7.67222222E+00	2.03000000E+02
7.67500000E+00	-2.18000000E+02
7.67777778E+00	-4.00000000E+01
7.68055556E+00	2.64000000E+02
7.68333333E+00	4.46000000E+02
7.68611111E+00	8.04000000E+02
7.68888889E+00	2.11000000E+02
7.69166667E+00	4.28000000E+02
7.69444444E+00	1.66000000E+02
7.69722222E+00	-6.70000000E+01
7.70000000E+00	1.18000000E+02
7.70277778E+00	3.42000000E+02
7.70555556E+00	2.23000000E+02
7.70833333E+00	-2.18000000E+02
7.71111111E+00	-4.00000000E+01
7.71388889E+00	2.64000000E+02
7.71666667E+00	4.51000000E+02
7.71944444E+00	8.09000000E+02
7.72222222E+00	2.16000000E+02
7.72500000E+00	4.23000000E+02
7.72777778E+00	1.67000000E+02
7.73055556E+00	-7.10000000E+01
7.73333333E+00	1.18000000E+02
7.73611111E+00	3.57000000E+02
7.73888889E+00	2.38000000E+02
7.74166667E+00	-2.28000000E+02
7.74444444E+00	-4.90000000E+01
7.74722222E+00	2.84000000E+02
7.75000000E+00	4.46000000E+02
7.75277778E+00	8.04000000E+02
7.75555556E+00	2.06000000E+02
7.75833333E+00	4.33000000E+02
7.76111111E+00	1.71000000E+02
7.76388889E+00	-6.60000000E+01
7.76666667E+00	1.42000000E+02
7.76944444E+00	3.52000000E+02
7.77222222E+00	2.08000000E+02
7.77500000E+00	-2.36000000E+02
7.77777778E+00	-5.70000000E+01
7.78055556E+00	2.99000000E+02
7.78333333E+00	4.37000000E+02
7.78611111E+00	7.94000000E+02
7.78888889E+00	2.02000000E+02
7.79166667E+00	4.23000000E+02
7.79444444E+00	1.67000000E+02
7.79722222E+00	-7.10000000E+01
7.80000000E+00	1.42000000E+02
7.80277778E+00	3.42000000E+02
7.80555556E+00	1.98000000E+02
7.80833333E+00	-2.45000000E+02
7.81111111E+00	-3.00000000E+01
7.81388889E+00	2.81000000E+02
7.81666667E+00	4.41000000E+02
7.81944444E+00	7.94000000E+02
7.82222222E+00	2.02000000E+02
7.82500000E+00	4.18000000E+02
7.82777778E+00	1.57000000E+02
7.83055556E+00	-7.60000000E+01
7.83333333E+00	1.13000000E+02
7.83611111E+00	3.28000000E+02
7.83888889E+00	2.13000000E+02
7.84166667E+00	-2.40000000E+02
7.84444444E+00	-2.50000000E+01
7.84722222E+00	2.72000000E+02
7.85000000E+00	4.41000000E+02
7.85277778E+00	7.98000000E+02
7.85555556E+00	2.11000000E+02
7.85833333E+00	4.22000000E+02
7.86111111E+00	1.62000000E+02
7.86388889E+00	-7.60000000E+01
7.86666667E+00	1.18000000E+02
7.86944444E+00	3.18000000E+02
7.87222222E+00	1.98000000E+02
7.87500000E+00	-2.18000000E+02
7.87777778E+00	-4.90000000E+01
7.88055556E+00	2.72000000E+02
7.88333333E+00	4.41000000E+02
7.88611111E+00	8.03000000E+02
7.88888889E+00	2.16000000E+02
7.89166667E+00	4.32000000E+02
7.89444444E+00	1.76000000E+02
7.89722222E+00	-6.20000000E+01
7.90000000E+00	1.13000000E+02
7.90277778E+00	3.18000000E+02
7.90555556E+00	2.03000000E+02
7.90833333E+00	-2.16000000E+02
7.91111111E+00	-3.90000000E+01
7.91388889E+00	2.59000000E+02
7.91666667E+00	4.46000000E+02
7.91944444E+00	8.08000000E+02
7.92222222E+00	2.17000000E+02
7.92500000E+00	4.32000000E+02
7.92777778E+00	1.76000000E+02
7.93055556E+00	-5.70000000E+01
7.93333333E+00	1.08000000E+02
7.93611111E+00	3.42000000E+02
7.93888889E+00	2.33000000E+02
7.94166667E+00	-2.14000000E+02
7.94444444E+00	-4.40000000E+01
7.94722222E+00	2.62000000E+02
7.95000000E+00	4.46000000E+02
7.95277778E+00	8.03000000E+02
7.95555556E+00	2.12000000E+02
7.95833333E+00	4.36000000E+02
7.96111111E+00	1.86000000E+02
7.96388889E+00	-5.00000000E+01
7.96666667E+00	1.18000000E+02
7.96944444E+00	3.52000000E+02
7.97222222E+00	2.33000000E+02
7.97500000E+00	-2.23000000E+02
7.97777778E+00	-6.10000000E+01
7.98055556E+00	2.89000000E+02
7.98333333E+00	4.46000000E+02
7.98611111E+00	7.97000000E+02
7.98888889E+00	2.07000000E+02
7.99166667E+00	4.32000000E+02
7.99444444E+00	1.76000000E+02
7.99722222E+00	-6.40000000E+01
8.00000000E+00	1.32000000E+02
8.00277778E+00	3.52000000E+02
8.00555556E+00	2.18000000E+02
8.00833333E+00	-2.33000000E+02
8.01111111E+00	-5.60000000E+01
8.01388889E+00	2.94000000E+02
8.01666667E+00	4.37000000E+02
8.01944444E+00	7.92000000E+02
8.02222222E+00	2.03000000E+02
8.02500000E+00	4.27000000E+02
8.02777778E+00	1.71000000E+02
8.03055556E+00	-7.40000000E+01
8.03333333E+00	1.32000000E+02
8.03611111E+00	3.62000000E+02
8.03888889E+00	2.28000000E+02
8.04166667E+00	-2.40000000E+02
8.04444444E+00	-4.20000000E+01
8.04722222E+00	2.86000000E+02
8.05000000E+00	4.32000000E+02
8.05277778E+00	7.87000000E+02
8.05555556E+00	1.98000000E+02
8.05833333E+00	4.26000000E+02
8.06111111E+00	1.71000000E+02
8.06388889E+00	-6.90000000E+01
8.06666667E+00	1.42000000E+02
8.06944444E+00	3.52000000E+02
8.07222222E+00	2.08000000E+02
8.07500000E+00	-2.45000000E+02
8.07777778E+00	-4.60000000E+01
8.08055556E+00	2.96000000E+02
8.08333333E+00	4.31000000E+02
8.08611111E+00	7.96000000E+02
8.08888889E+00	2.12000000E+02
8.09166667E+00	4.21000000E+02
8.09444444E+00	1.71000000E+02
8.09722222E+00	-6.90000000E+01
8.10000000E+00	1.37000000E+02
8.10277778E+00	3.62000000E+02
8.10555556E+00	2.24000000E+02
8.10833333E+00	-2.45000000E+02
8.11111111E+00	-3.20000000E+01
8.11388889E+00	2.82000000E+02
8.11666667E+00	4.21000000E+02
8.11944444E+00	7.91000000E+02
8.12222222E+00	2.07000000E+02
8.12500000E+00	4.40000000E+02
8.12777778E+00	1.81000000E+02
8.13055556E+00	-6.00000000E+01
8.13333333E+00	1.23000000E+02
8.13611111E+00	3.47000000E+02
8.13888889E+00	2.24000000E+02
8.14166667E+00	-2.48000000E+02
8.14444444E+00	-4.20000000E+01
8.14722222E+00	2.95000000E+02
8.15000000E+00	4.26000000E+02
8.15277778E+00	7.87000000E+02
8.15555556E+00	2.03000000E+02
8.15833333E+00	4.30000000E+02
8.16111111E+00	1.81000000E+02
8.16388889E+00	-5.50000000E+01
8.16666667E+00	1.08000000E+02
8.16944444E+00	3.23000000E+02
8.17222222E+00	2.14000000E+02
8.17500000E+00	-2.33000000E+02
8.17777778E+00	-4.90000000E+01
8.18055556E+00	2.87000000E+02
8.18333333E+00	4.26000000E+02
8.18611111E+00	7.87000000E+02
8.18888889E+00	2.07000000E+02
8.19166667E+00	4.30000000E+02
8.19444444E+00	1.81000000E+02
8.19722222E+00	-5.40000000E+01
8.20000000E+00	1.18000000E+02
8.20277778E+00	3.42000000E+02
8.20555556E+00	2.24000000E+02
8.20833333E+00	-2.14000000E+02
8.21111111E+00	-5.10000000E+01
8.21388889E+00	2.70000000E+02
8.21666667E+00	4.26000000E+02
8.21944444E+00	7.86000000E+02
8.22222222E+00	2.07000000E+02
8.22500000E+00	4.34000000E+02
8.22777778E+00	1.81000000E+02
8.23055556E+00	-4.90000000E+01
8.23333333E+00	1.23000000E+02
8.23611111E+00	3.67000000E+02
8.23888889E+00	2.43000000E+02
8.24166667E+00	-2.28000000E+02
8.24444444E+00	-5.10000000E+01
8.24722222E+00	2.85000000E+02
8.25000000E+00	4.36000000E+02
8.25277778E+00	7.95000000E+02
8.25555556E+00	2.12000000E+02
8.25833333E+00	4.34000000E+02
8.26111111E+00	1.81000000E+02
8.26388889E+00	-5.40000000E+01
8.26666667E+00	1.37000000E+02
8.26944444E+00	3.52000000E+02
8.27222222E+00	2.14000000E+02
8.27500000E+00	-2.44000000E+02
8.27777778E+00	-5.90000000E+01
8.28055556E+00	3.07000000E+02
8.28333333E+00	4.25000000E+02
8.28611111E+00	7.95000000E+02
8.28888889E+00	2.12000000E+02
8.29166667E+00	4.39000000E+02
8.29444444E+00	1.91000000E+02
8.29722222E+00	-4.90000000E+01
8.30000000E+00	1.47000000E+02
8.30277778E+00	3.63000000E+02
8.30555556E+00	2.14000000E+02
8.30833333E+00	-2.44000000E+02
8.31111111E+00	-3.70000000E+01
8.31388889E+00	2.85000000E+02
8.31666667E+00	4.10000000E+02
8.31944444E+00	7.76000000E+02
8.32222222E+00	1.93000000E+02
8.32500000E+00	4.39000000E+02
8.32777778E+00	1.86000000E+02
8.33055556E+00	-5.40000000E+01
8.33333333E+00	1.47000000E+02
8.33611111E+00	3.68000000E+02
8.33888889E+00	2.19000000E+02
8.34166667E+00	-2.54000000E+02
8.34444444E+00	-3.20000000E+01
8.34722222E+00	2.90000000E+02
8.35000000E+00	4.15000000E+02
8.35277778E+00	7.85000000E+02
8.35555556E+00	2.07000000E+02
8.35833333E+00	4.20000000E+02
8.36111111E+00	1.67000000E+02
8.36388889E+00	-6.80000000E+01
8.36666667E+00	1.47000000E+02
8.36944444E+00	3.58000000E+02
8.37222222E+00	2.09000000E+02
8.37500000E+00	-2.56000000E+02
8.37777778E+00	-3.40000000E+01
8.38055556E+00	2.96000000E+02
8.38333333E+00	4.20000000E+02
8.38611111E+00	7.89000000E+02
8.38888889E+00	2.12000000E+02
8.39166667E+00	4.39000000E+02
8.39444444E+00	1.86000000E+02
8.39722222E+00	-4.90000000E+01
8.40000000E+00	1.37000000E+02
8.40277778E+00	3.53000000E+02
8.40555556E+00	2.14000000E+02
8.40833333E+00	-2.51000000E+02
8.41111111E+00	-2.90000000E+01
8.41388889E+00	2.86000000E+02
8.41666667E+00	4.10000000E+02
8.41944444E+00	7.79000000E+02
8.42222222E+00	2.07000000E+02
8.42500000E+00	4.44000000E+02
8.42777778E+00	1.92000000E+02
8.43055556E+00	-4.70000000E+01
8.43333333E+00	1.18000000E+02
8.43611111E+00	3.63000000E+02
8.43888889E+00	2.43000000E+02
8.44166667E+00	-2.44000000E+02
8.44444444E+00	-3.70000000E+01
8.44722222E+00	2.86000000E+02
8.45000000E+00	4.15000000E+02
8.45277778E+00	7.88000000E+02
8.45555556E+00	2.17000000E+02
8.45833333E+00	4.39000000E+02
8.46111111E+00	1.92000000E+02
8.46388889E+00	-4.20000000E+01
8.46666667E+00	1.27000000E+02
8.46944444E+00	3.58000000E+02
8.47222222E+00	2.29000000E+02
8.47500000E+00	-2.39000000E+02
8.47777778E+00	-6.10000000E+01
8.48055556E+00	3.05000000E+02
8.48333333E+00	4.15000000E+02
8.48611111E+00	7.88000000E+02
8.48888889E+00	2.12000000E+02
8.49166667E+00	4.53000000E+02
8.49444444E+00	2.02000000E+02
8.49722222E+00	-2.70000000E+01
8.50000000E+00	1.32000000E+02
8.50277778E+00	3.53000000E+02
8.50555556E+00	2.19000000E+02
8.50833333E+00	-2.41000000E+02
8.51111111E+00	-4.90000000E+01
8.51388889E+00	2.96000000E+02
8.51666667E+00	4.10000000E+02
8.51944444E+00	7.79000000E+02
8.52222222E+00	1.98000000E+02
8.52500000E+00	4.48000000E+02
8.52777778E+00	1.97000000E+02
8.53055556E+00	-2.70000000E+01
8.53333333E+00	1.37000000E+02
8.53611111E+00	3.68000000E+02
8.53888889E+00	2.29000000E+02
8.54166667E+00	-2.41000000E+02
8.54444444E+00	-4.20000000E+01
8.54722222E+00	2.88000000E+02
8.55000000E+00	4.10000000E+02
8.55277778E+00	7.84000000E+02
8.55555556E+00	2.03000000E+02
8.55833333E+00	4.38000000E+02
8.56111111E+00	1.87000000E+02
8.56388889E+00	-5.20000000E+01
8.56666667E+00	1.47000000E+02
8.56944444E+00	3.77000000E+02
8.57222222E+00	2.29000000E+02
8.57500000E+00	-2.51000000E+02
8.57777778E+00	-4.40000000E+01
8.58055556E+00	3.01000000E+02
8.58333333E+00	4.10000000E+02
8.58611111E+00	7.83000000E+02
8.58888889E+00	2.03000000E+02
8.59166667E+00	4.38000000E+02
8.59444444E+00	1.92000000E+02
8.59722222E+00	-4.20000000E+01
8.60000000E+00	1.52000000E+02
8.60277778E+00	3.82000000E+02
8.60555556E+00	2.29000000E+02
8.60833333E+00	-2.61000000E+02
8.61111111E+00	-3.90000000E+01
8.61388889E+00	3.05000000E+02
8.61666667E+00	4.04000000E+02
8.61944444E+00	7.78000000E+02
8.62222222E+00	2.03000000E+02
8.62500000E+00	4.38000000E+02
8.62777778E+00	1.92000000E+02
8.63055556E+00	-4.20000000E+01
8.63333333E+00	1.52000000E+02
8.63611111E+00	3.77000000E+02
8.63888889E+00	2.24000000E+02
8.64166667E+00	-2.67000000E+02
8.64444444E+00	-3.70000000E+01
8.64722222E+00	3.08000000E+02
8.65000000E+00	4.04000000E+02
8.65277778E+00	7.83000000E+02
8.65555556E+00	2.12000000E+02
8.65833333E+00	4.33000000E+02
8.66111111E+00	1.92000000E+02
8.66388889E+00	-4.10000000E+01
8.66666667E+00	1.37000000E+02
8.66944444E+00	3.87000000E+02
8.67222222E+00	2.48000000E+02
8.67500000E+00	-2.64000000E+02
8.67777778E+00	-3.40000000E+01
8.68055556E+00	3.03000000E+02
8.68333333E+00	3.99000000E+02
8.68611111E+00	7.83000000E+02
8.68888889E+00	2.17000000E+02
8.69166667E+00	4.42000000E+02
8.69444444E+00	2.02000000E+02
8.69722222E+00	-2.60000000E+01
8.70000000E+00	1.23000000E+02
8.70277778E+00	3.77000000E+02
8.70555556E+00	2.53000000E+02
8.70833333E+00	-2.62000000E+02
8.71111111E+00	-5.40000000E+01
8.71388889E+00	3.20000000E+02
8.71666667E+00	3.99000000E+02
8.71944444E+00	7.82000000E+02
8.72222222E+00	2.22000000E+02
8.72500000E+00	4.52000000E+02
8.72777778E+00	2.07000000E+02
8.73055556E+00	-2.60000000E+01
8.73333333E+00	1.27000000E+02
8.73611111E+00	3.63000000E+02
8.73888889E+00	2.34000000E+02
8.74166667E+00	-2.50000000E+02
8.74444444E+00	-6.40000000E+01
8.74722222E+00	3.18000000E+02
8.75000000E+00	3.99000000E+02
8.75277778E+00	7.82000000E+02
8.75555556E+00	2.17000000E+02
8.75833333E+00	4.57000000E+02
8.76111111E+00	2.16000000E+02
8.76388889E+00	-2.10000000E+01
8.76666667E+00	1.37000000E+02
8.76944444E+00	3.78000000E+02
8.77222222E+00	2.39000000E+02
8.77500000E+00	-2.45000000E+02
8.77777778E+00	-5.10000000E+01
8.78055556E+00	3.01000000E+02
8.78333333E+00	3.99000000E+02
8.78611111E+00	7.76000000E+02
8.78888889E+00	2.12000000E+02
8.79166667E+00	4.57000000E+02
8.79444444E+00	2.16000000E+02
8.79722222E+00	-2.10000000E+01
8.80000000E+00	1.42000000E+02
8.80277778E+00	3.83000000E+02
8.80555556E+00	2.39000000E+02
8.80833333E+00	-2.57000000E+02
8.81111111E+00	-4.90000000E+01
8.81388889E+00	3.10000000E+02
8.81666667E+00	3.99000000E+02
8.81944444E+00	7.81000000E+02
8.82222222E+00	2.17000000E+02
8.82500000E+00	4.51000000E+02
8.82777778E+00	2.11000000E+02
8.83055556E+00	-2.60000000E+01
8.83333333E+00	1.47000000E+02
8.83611111E+00	3.88000000E+02
8.83888889E+00	2.39000000E+02
8.84166667E+00	-2.62000000E+02
8.84444444E+00	-4.60000000E+01
8.84722222E+00	3.14000000E+02
8.85000000E+00	3.95000000E+02
8.85277778E+00	7.81000000E+02
8.85555556E+00	2.12000000E+02
8.85833333E+00	4.51000000E+02
8.86111111E+00	2.07000000E+02
8.86388889E+00	-2.60000000E+01
8.86666667E+00	1.52000000E+02
8.86944444E+00	4.08000000E+02
8.87222222E+00	2.53000000E+02
8.87500000E+00	-2.67000000E+02
8.87777778E+00	-4.40000000E+01
8.88055556E+00	3.16000000E+02
8.88333333E+00	3.95000000E+02
8.88611111E+00	7.76000000E+02
8.88888889E+00	2.17000000E+02
8.89166667E+00	4.51000000E+02
8.89444444E+00	2.08000000E+02
8.89722222E+00	-1.90000000E+01
8.90000000E+00	1.52000000E+02
8.90277778E+00	4.22000000E+02
8.90555556E+00	2.69000000E+02
8.90833333E+00	-2.79000000E+02
8.91111111E+00	-4.90000000E+01
8.91388889E+00	3.33000000E+02
8.91666667E+00	3.95000000E+02
8.91944444E+00	7.85000000E+02
8.92222222E+00	2.27000000E+02
8.92500000E+00	4.51000000E+02
8.92777778E+00	2.17000000E+02
8.93055556E+00	-2.40000000E+01
8.93333333E+00	1.62000000E+02
8.93611111E+00	4.13000000E+02
8.93888889E+00	2.49000000E+02
8.94166667E+00	-2.86000000E+02
8.94444444E+00	-5.60000000E+01
8.94722222E+00	3.48000000E+02
8.95000000E+00	3.90000000E+02
8.95277778E+00	7.80000000E+02
8.95555556E+00	2.22000000E+02
8.95833333E+00	4.66000000E+02
8.96111111E+00	2.27000000E+02
8.96388889E+00	-1.00000000E+01
8.96666667E+00	1.57000000E+02
8.96944444E+00	3.99000000E+02
8.97222222E+00	2.40000000E+02
8.97500000E+00	-2.86000000E+02
8.97777778E+00	-4.20000000E+01
8.98055556E+00	3.33000000E+02
8.98333333E+00	3.80000000E+02
8.98611111E+00	7.70000000E+02
8.98888889E+00	2.22000000E+02
8.99166667E+00	4.61000000E+02
8.99444444E+00	2.22000000E+02
8.99722222E+00	-1.00000000E+01
9.00000000E+00	1.42000000E+02
9.00277778E+00	3.99000000E+02
9.00555556E+00	2.54000000E+02
9.00833333E+00	-2.77000000E+02
9.01111111E+00	-3.90000000E+01
9.01388889E+00	3.21000000E+02
9.01666667E+00	3.80000000E+02
9.01944444E+00	7.75000000E+02
9.02222222E+00	2.27000000E+02
9.02500000E+00	4.61000000E+02
9.02777778E+00	2.27000000E+02
9.03055556E+00	-1.00000000E+01
9.03333333E+00	1.47000000E+02
9.03611111E+00	3.99000000E+02
9.03888889E+00	2.49000000E+02
9.04166667E+00	-2.69000000E+02
9.04444444E+00	-5.40000000E+01
9.04722222E+00	3.28000000E+02
9.05000000E+00	3.85000000E+02
9.05277778E+00	7.84000000E+02
9.05555556E+00	2.32000000E+02
9.05833333E+00	4.71000000E+02
9.06111111E+00	2.37000000E+02
9.06388889E+00	0.00000000E+00
9.06666667E+00	1.57000000E+02
9.06944444E+00	4.09000000E+02
9.07222222E+00	2.49000000E+02
9.07500000E+00	-2.72000000E+02
9.07777778E+00	-4.90000000E+01
9.08055556E+00	3.26000000E+02
9.08333333E+00	3.85000000E+02
9.08611111E+00	7.79000000E+02
9.08888889E+00	2.27000000E+02
9.09166667E+00	4.75000000E+02
9.09444444E+00	2.43000000E+02
9.09722222E+00	1.00000000E+00
9.10000000E+00	1.66000000E+02
9.10277778E+00	4.18000000E+02
9.10555556E+00	2.49000000E+02
9.10833333E+00	-2.81000000E+02
9.11111111E+00	-4.40000000E+01
9.11388889E+00	3.31000000E+02
9.11666667E+00	3.85000000E+02
9.11944444E+00	7.83000000E+02
9.12222222E+00	2.32000000E+02
9.12500000E+00	4.70000000E+02
9.12777778E+00	2.38000000E+02
9.13055556E+00	1.00000000E+00
9.13333333E+00	1.76000000E+02
9.13611111E+00	4.28000000E+02
9.13888889E+00	2.49000000E+02
9.14166667E+00	-2.91000000E+02
9.14444444E+00	-3.90000000E+01
9.14722222E+00	3.36000000E+02
9.15000000E+00	3.79000000E+02
9.15277778E+00	7.78000000E+02
9.15555556E+00	2.32000000E+02
9.15833333E+00	4.74000000E+02
9.16111111E+00	2.43000000E+02
9.16388889E+00	6.00000000E+00
9.16666667E+00	1.66000000E+02
9.16944444E+00	4.57000000E+02
9.17222222E+00	2.89000000E+02
9.17500000E+00	-3.01000000E+02
9.17777778E+00	-3.40000000E+01
9.18055556E+00	3.41000000E+02
9.18333333E+00	3.74000000E+02
9.18611111E+00	7.82000000E+02
9.18888889E+00	2.42000000E+02
9.19166667E+00	4.74000000E+02
9.19444444E+00	2.43000000E+02
9.19722222E+00	6.00000000E+00
9.20000000E+00	1.71000000E+02
9.20277778E+00	4.53000000E+02
9.20555556E+00	2.80000000E+02
9.20833333E+00	-3.11000000E+02
9.21111111E+00	-5.90000000E+01
9.21388889E+00	3.75000000E+02
9.21666667E+00	3.74000000E+02
9.21944444E+00	7.87000000E+02
9.22222222E+00	2.51000000E+02
9.22500000E+00	4.79000000E+02
9.22777778E+00	2.53000000E+02
9.23055556E+00	1.60000000E+01
9.23333333E+00	1.76000000E+02
9.23611111E+00	4.48000000E+02
9.23888889E+00	2.70000000E+02
9.24166667E+00	-3.11000000E+02
9.24444444E+00	-5.10000000E+01
9.24722222E+00	3.67000000E+02
9.25000000E+00	3.64000000E+02
9.25277778E+00	7.82000000E+02
9.25555556E+00	2.42000000E+02
9.25833333E+00	4.89000000E+02
9.26111111E+00	2.62000000E+02
9.26388889E+00	2.50000000E+01
9.26666667E+00	1.62000000E+02
9.26944444E+00	4.43000000E+02
9.27222222E+00	2.80000000E+02
9.27500000E+00	-3.11000000E+02
9.27777778E+00	-4.40000000E+01
9.28055556E+00	3.60000000E+02
9.28333333E+00	3.69000000E+02
9.28611111E+00	7.92000000E+02
9.28888889E+00	2.56000000E+02
9.29166667E+00	4.79000000E+02
9.29444444E+00	2.53000000E+02
9.29722222E+00	2.50000000E+01
9.30000000E+00	1.57000000E+02
9.30277778E+00	4.23000000E+02
9.30555556E+00	2.65000000E+02
9.30833333E+00	-3.01000000E+02
9.31111111E+00	-5.60000000E+01
9.31388889E+00	3.63000000E+02
9.31666667E+00	3.64000000E+02
9.31944444E+00	7.91000000E+02
9.32222222E+00	2.51000000E+02
9.32500000E+00	4.99000000E+02
9.32777778E+00	2.77000000E+02
9.33055556E+00	3.60000000E+01
9.33333333E+00	1.66000000E+02
9.33611111E+00	4.33000000E+02
9.33888889E+00	2.65000000E+02
9.34166667E+00	-2.89000000E+02
9.34444444E+00	-5.10000000E+01
9.34722222E+00	3.45000000E+02
9.35000000E+00	3.58000000E+02
9.35277778E+00	7.86000000E+02
9.35555556E+00	2.47000000E+02
9.35833333E+00	4.98000000E+02
9.36111111E+00	2.72000000E+02
9.36388889E+00	3.10000000E+01
9.36666667E+00	1.76000000E+02
9.36944444E+00	4.57000000E+02
9.37222222E+00	2.80000000E+02
9.37500000E+00	-2.99000000E+02
9.37777778E+00	-4.60000000E+01
9.38055556E+00	3.50000000E+02
9.38333333E+00	3.63000000E+02
9.38611111E+00	8.01000000E+02
9.38888889E+00	2.66000000E+02
9.39166667E+00	4.93000000E+02
9.39444444E+00	2.67000000E+02
9.39722222E+00	2.70000000E+01
9.40000000E+00	1.82000000E+02
9.40277778E+00	4.77000000E+02
9.40555556E+00	2.94000000E+02
9.40833333E+00	-3.16000000E+02
9.41111111E+00	-4.90000000E+01
9.41388889E+00	3.70000000E+02
9.41666667E+00	3.58000000E+02
9.41944444E+00	7.96000000E+02
9.42222222E+00	2.66000000E+02
9.42500000E+00	5.08000000E+02
9.42777778E+00	2.87000000E+02
9.43055556E+00	4.60000000E+01
9.43333333E+00	2.02000000E+02
9.43611111E+00	4.77000000E+02
9.43888889E+00	2.75000000E+02
9.44166667E+00	-3.29000000E+02
9.44444444E+00	-5.40000000E+01
9.44722222E+00	3.87000000E+02
9.45000000E+00	3.54000000E+02
9.45277778E+00	7.95000000E+02
9.45555556E+00	2.66000000E+02
9.45833333E+00	5.11000000E+02
9.46111111E+00	2.87000000E+02
9.46388889E+00	4.10000000E+01
9.46666667E+00	2.06000000E+02
9.46944444E+00	4.87000000E+02
9.47222222E+00	2.80000000E+02
9.47500000E+00	-3.39000000E+02
9.47777778E+00	-3.40000000E+01
9.48055556E+00	3.77000000E+02
9.48333333E+00	3.54000000E+02
9.48611111E+00	8.00000000E+02
9.48888889E+00	2.78000000E+02
9.49166667E+00	5.11000000E+02
9.49444444E+00	2.87000000E+02
9.49722222E+00	4.10000000E+01
9.50000000E+00	2.02000000E+02
9.50277778E+00	4.82000000E+02
9.50555556E+00	2.80000000E+02
9.50833333E+00	-3.46000000E+02
9.51111111E+00	-3.40000000E+01
9.51388889E+00	3.84000000E+02
9.51666667E+00	3.49000000E+02
9.51944444E+00	8.04000000E+02
9.52222222E+00	2.88000000E+02
9.52500000E+00	5.26000000E+02
9.52777778E+00	2.96000000E+02
9.53055556E+00	5.10000000E+01
9.53333333E+00	1.97000000E+02
9.53611111E+00	4.82000000E+02
9.53888889E+00	2.84000000E+02
9.54166667E+00	-3.41000000E+02
9.54444444E+00	-3.70000000E+01
9.54722222E+00	3.82000000E+02
9.55000000E+00	3.44000000E+02
9.55277778E+00	8.09000000E+02
9.55555556E+00	2.92000000E+02
9.55833333E+00	5.31000000E+02
9.56111111E+00	3.01000000E+02
9.56388889E+00	5.70000000E+01
9.56666667E+00	1.87000000E+02
9.56944444E+00	4.82000000E+02
9.57222222E+00	2.94000000E+02
9.57500000E+00	-3.39000000E+02
9.57777778E+00	-4.20000000E+01
9.58055556E+00	3.85000000E+02
9.58333333E+00	3.49000000E+02
9.58611111E+00	8.19000000E+02
9.58888889E+00	3.02000000E+02
9.59166667E+00	5.36000000E+02
9.59444444E+00	3.11000000E+02
9.59722222E+00	6.70000000E+01
9.60000000E+00	1.87000000E+02
9.60277778E+00	4.87000000E+02
9.60555556E+00	2.99000000E+02
9.60833333E+00	-3.34000000E+02
9.61111111E+00	-5.10000000E+01
9.61388889E+00	3.90000000E+02
9.61666667E+00	3.44000000E+02
9.61944444E+00	8.19000000E+02
9.62222222E+00	2.97000000E+02
9.62500000E+00	5.55000000E+02
9.62777778E+00	3.21000000E+02
9.63055556E+00	7.60000000E+01
9.63333333E+00	2.11000000E+02
9.63611111E+00	4.92000000E+02
9.63888889E+00	2.80000000E+02
9.64166667E+00	-3.36000000E+02
9.64444444E+00	-5.40000000E+01
9.64722222E+00	3.95000000E+02
9.65000000E+00	3.49000000E+02
9.65277778E+00	8.23000000E+02
9.65555556E+00	3.02000000E+02
9.65833333E+00	5.50000000E+02
9.66111111E+00	3.16000000E+02
9.66388889E+00	6.20000000E+01
9.66666667E+00	2.16000000E+02
9.66944444E+00	5.12000000E+02
9.67222222E+00	2.94000000E+02
9.67500000E+00	-3.51000000E+02
9.67777778E+00	-3.20000000E+01
9.68055556E+00	3.88000000E+02
9.68333333E+00	3.48000000E+02
9.68611111E+00	8.33000000E+02
9.68888889E+00	3.17000000E+02
9.69166667E+00	5.55000000E+02
9.69444444E+00	3.26000000E+02
9.69722222E+00	7.60000000E+01
9.70000000E+00	2.26000000E+02
9.70277778E+00	5.32000000E+02
9.70555556E+00	3.04000000E+02
9.70833333E+00	-3.63000000E+02
9.71111111E+00	-3.70000000E+01
9.71388889E+00	4.05000000E+02
9.71666667E+00	3.43000000E+02
9.71944444E+00	8.42000000E+02
9.72222222E+00	3.22000000E+02
9.72500000E+00	5.70000000E+02
9.72777778E+00	3.35000000E+02
9.73055556E+00	8.10000000E+01
9.73333333E+00	2.26000000E+02
9.73611111E+00	5.32000000E+02
9.73888889E+00	3.05000000E+02
9.74166667E+00	-3.78000000E+02
9.74444444E+00	-3.70000000E+01
9.74722222E+00	4.20000000E+02
9.75000000E+00	3.48000000E+02
9.75277778E+00	8.52000000E+02
9.75555556E+00	3.31000000E+02
9.75833333E+00	5.75000000E+02
9.76111111E+00	3.35000000E+02
9.76388889E+00	8.60000000E+01
9.76666667E+00	2.11000000E+02
9.76944444E+00	5.37000000E+02
9.77222222E+00	3.24000000E+02
9.77500000E+00	-3.78000000E+02
9.77777778E+00	-3.70000000E+01
9.78055556E+00	4.20000000E+02
9.78333333E+00	3.48000000E+02
9.78611111E+00	8.52000000E+02
9.78888889E+00	3.41000000E+02
9.79166667E+00	5.79000000E+02
9.79444444E+00	3.41000000E+02
9.79722222E+00	9.30000000E+01
9.80000000E+00	2.16000000E+02
9.80277778E+00	5.27000000E+02
9.80555556E+00	3.10000000E+02
9.80833333E+00	-3.73000000E+02
9.81111111E+00	-5.40000000E+01
9.81388889E+00	4.32000000E+02
9.81666667E+00	3.43000000E+02
9.81944444E+00	8.56000000E+02
9.82222222E+00	3.41000000E+02
9.82500000E+00	5.89000000E+02
9.82777778E+00	3.51000000E+02
9.83055556E+00	1.03000000E+02
9.83333333E+00	2.16000000E+02
9.83611111E+00	5.22000000E+02
9.83888889E+00	3.05000000E+02
9.84166667E+00	-3.70000000E+02
9.84444444E+00	-4.50000000E+01
9.84722222E+00	4.21000000E+02
9.85000000E+00	3.53000000E+02
9.85277778E+00	8.65000000E+02
9.85555556E+00	3.56000000E+02
9.85833333E+00	5.89000000E+02
9.86111111E+00	3.51000000E+02
9.86388889E+00	9.80000000E+01
9.86666667E+00	2.06000000E+02
9.86944444E+00	5.32000000E+02
9.87222222E+00	3.24000000E+02
9.87500000E+00	-3.68000000E+02
9.87777778E+00	-4.30000000E+01
9.88055556E+00	4.16000000E+02
9.88333333E+00	3.57000000E+02
9.88611111E+00	8.74000000E+02
9.88888889E+00	3.61000000E+02
9.89166667E+00	6.08000000E+02
9.89444444E+00	3.66000000E+02
9.89722222E+00	1.17000000E+02
9.90000000E+00	2.16000000E+02
9.90277778E+00	5.27000000E+02
9.90555556E+00	3.10000000E+02
9.90833333E+00	-3.68000000E+02
9.91111111E+00	-5.70000000E+01
9.91388889E+00	4.30000000E+02
9.91666667E+00	3.62000000E+02
9.91944444E+00	8.79000000E+02
9.92222222E+00	3.66000000E+02
9.92500000E+00	6.03000000E+02
9.92777778E+00	3.66000000E+02
9.93055556E+00	1.08000000E+02
9.93333333E+00	2.31000000E+02
9.93611111E+00	5.32000000E+02
9.93888889E+00	3.00000000E+02
9.94166667E+00	-3.70000000E+02
9.94444444E+00	-4.50000000E+01
9.94722222E+00	4.21000000E+02
9.95000000E+00	3.67000000E+02
9.95277778E+00	8.94000000E+02
9.95555556E+00	3.75000000E+02
9.95833333E+00	6.13000000E+02
9.96111111E+00	3.66000000E+02
9.96388889E+00	1.08000000E+02
9.96666667E+00	2.31000000E+02
9.96944444E+00	5.56000000E+02
9.97222222E+00	3.24000000E+02
9.97500000E+00	-3.80000000E+02
9.97777778E+00	-3.30000000E+01
9.98055556E+00	4.18000000E+02
9.98333333E+00	3.62000000E+02
9.98611111E+00	8.94000000E+02
9.98888889E+00	3.75000000E+02
9.99166667E+00	6.17000000E+02
9.99444444E+00	3.76000000E+02
9.99722222E+00	1.17000000E+02
1.00000000E+01	2.50000000E+02
1.00027778E+01	5.61000000E+02
1.00055556E+01	3.10000000E+02
1.00083333E+01	-3.92000000E+02
1.00111111E+01	-4.50000000E+01
1.00138889E+01	4.43000000E+02
1.00166667E+01	3.72000000E+02
1.00194444E+01	9.08000000E+02
1.00222222E+01	3.95000000E+02
1.00250000E+01	6.17000000E+02
1.00277778E+01	3.71000000E+02
1.00305556E+01	1.13000000E+02
1.00333333E+01	2.46000000E+02
1.00361111E+01	5.51000000E+02
1.00388889E+01	3.05000000E+02
1.00416667E+01	-4.04000000E+02
1.00444444E+01	-2.80000000E+01
1.00472222E+01	4.38000000E+02
1.00500000E+01	3.72000000E+02
1.00527778E+01	9.08000000E+02
1.00555556E+01	4.05000000E+02
1.00583333E+01	6.31000000E+02
1.00611111E+01	3.85000000E+02
1.00638889E+01	1.23000000E+02
1.00666667E+01	2.36000000E+02
1.00694444E+01	5.46000000E+02
1.00722222E+01	3.10000000E+02
1.00750000E+01	-3.97000000E+02
1.00777778E+01	-2.80000000E+01
1.00805556E+01	4.30000000E+02
1.00833333E+01	3.77000000E+02
1.00861111E+01	9.17000000E+02
1.00888889E+01	4.05000000E+02
1.00916667E+01	6.35000000E+02
1.00944444E+01	3.85000000E+02
1.00972222E+01	1.28000000E+02
1.01000000E+01	2.16000000E+02
1.01027778E+01	5.37000000E+02
1.01055556E+01	3.20000000E+02
1.01083333E+01	-3.90000000E+02
1.01111111E+01	-3.50000000E+01
1.01138889E+01	4.30000000E+02
1.01166667E+01	3.87000000E+02
1.01194444E+01	9.32000000E+02
1.01222222E+01	4.24000000E+02
1.01250000E+01	6.35000000E+02
1.01277778E+01	3.90000000E+02
1.01305556E+01	1.28000000E+02
1.01333333E+01	2.21000000E+02
1.01361111E+01	5.28000000E+02
1.01388889E+01	3.05000000E+02
1.01416667E+01	-3.75000000E+02
1.01444444E+01	-5.00000000E+01
1.01472222E+01	4.30000000E+02
1.01500000E+01	3.92000000E+02
1.01527778E+01	9.41000000E+02
1.01555556E+01	4.29000000E+02
1.01583333E+01	6.50000000E+02
1.01611111E+01	4.00000000E+02
1.01638889E+01	1.33000000E+02
1.01666667E+01	2.16000000E+02
1.01694444E+01	5.33000000E+02
1.01722222E+01	3.15000000E+02
1.01750000E+01	-3.73000000E+02
1.01777778E+01	-4.00000000E+01
1.01805556E+01	4.18000000E+02
1.01833333E+01	4.01000000E+02
1.01861111E+01	9.40000000E+02
1.01888889E+01	4.29000000E+02
1.01916667E+01	6.55000000E+02
1.01944444E+01	4.05000000E+02
1.01972222E+01	1.38000000E+02
1.02000000E+01	2.26000000E+02
1.02027778E+01	5.57000000E+02
1.02055556E+01	3.29000000E+02
1.02083333E+01	-3.73000000E+02
1.02111111E+01	-4.70000000E+01
1.02138889E+01	4.26000000E+02
1.02166667E+01	4.10000000E+02
1.02194444E+01	9.55000000E+02
1.02222222E+01	4.34000000E+02
1.02250000E+01	6.50000000E+02
1.02277778E+01	3.95000000E+02
1.02305556E+01	1.28000000E+02
1.02333333E+01	2.46000000E+02
1.02361111E+01	5.67000000E+02
1.02388889E+01	3.20000000E+02
1.02416667E+01	-3.90000000E+02
1.02444444E+01	-5.00000000E+01
1.02472222E+01	4.45000000E+02
1.02500000E+01	4.15000000E+02
1.02527778E+01	9.59000000E+02
1.02555556E+01	4.39000000E+02
1.02583333E+01	6.55000000E+02
1.02611111E+01	4.01000000E+02
1.02638889E+01	1.30000000E+02
1.02666667E+01	2.50000000E+02
1.02694444E+01	5.81000000E+02
1.02722222E+01	3.29000000E+02
1.02750000E+01	-4.04000000E+02
1.02777778E+01	-3.50000000E+01
1.02805556E+01	4.45000000E+02
1.02833333E+01	4.10000000E+02
1.02861111E+01	9.54000000E+02
1.02888889E+01	4.39000000E+02
1.02916667E+01	6.65000000E+02
1.02944444E+01	4.11000000E+02
1.02972222E+01	1.40000000E+02
1.03000000E+01	2.55000000E+02
1.03027778E+01	5.91000000E+02
1.03055556E+01	3.34000000E+02
1.03083333E+01	-4.14000000E+02
1.03111111E+01	-3.80000000E+01
1.03138889E+01	4.58000000E+02
1.03166667E+01	4.20000000E+02
1.03194444E+01	9.69000000E+02
1.03222222E+01	4.53000000E+02
1.03250000E+01	6.60000000E+02
1.03277778E+01	4.01000000E+02
1.03305556E+01	1.30000000E+02
1.03333333E+01	2.46000000E+02
1.03361111E+01	5.86000000E+02
1.03388889E+01	3.39000000E+02
1.03416667E+01	-4.22000000E+02
1.03444444E+01	-3.80000000E+01
1.03472222E+01	4.66000000E+02
1.03500000E+01	4.20000000E+02
1.03527778E+01	9.74000000E+02
1.03555556E+01	4.58000000E+02
1.03583333E+01	6.79000000E+02
1.03611111E+01	4.16000000E+02
1.03638889E+01	1.40000000E+02
1.03666667E+01	2.41000000E+02
1.03694444E+01	5.78000000E+02
1.03722222E+01	3.34000000E+02
1.03750000E+01	-4.14000000E+02
1.03777778E+01	-4.50000000E+01
1.03805556E+01	4.66000000E+02
1.03833333E+01	4.25000000E+02
1.03861111E+01	9.74000000E+02
1.03888889E+01	4.58000000E+02
1.03916667E+01	6.74000000E+02
1.03944444E+01	4.16000000E+02
1.03972222E+01	1.35000000E+02
1.04000000E+01	2.31000000E+02
1.04027778E+01	5.58000000E+02
1.04055556E+01	3.24000000E+02
1.04083333E+01	-4.07000000E+02
1.04111111E+01	-4.50000000E+01
1.04138889E+01	4.58000000E+02
1.04166667E+01	4.29000000E+02
1.04194444E+01	9.83000000E+02
1.04222222E+01	4.63000000E+02
1.04250000E+01	6.78000000E+02
1.04277778E+01	4.11000000E+02
1.04305556E+01	1.40000000E+02
1.04333333E+01	2.21000000E+02
1.04361111E+01	5.48000000E+02
1.04388889E+01	3.24000000E+02
1.04416667E+01	-3.92000000E+02
1.04444444E+01	-4.50000000E+01
1.04472222E+01	4.44000000E+02
1.04500000E+01	4.38000000E+02
1.04527778E+01	9.82000000E+02
1.04555556E+01	4.58000000E+02
1.04583333E+01	6.78000000E+02
1.04611111E+01	4.16000000E+02
1.04638889E+01	1.40000000E+02
1.04666667E+01	2.21000000E+02
1.04694444E+01	5.43000000E+02
1.04722222E+01	3.20000000E+02
1.04750000E+01	-3.82000000E+02
1.04777778E+01	-5.00000000E+01
1.04805556E+01	4.39000000E+02
1.04833333E+01	4.58000000E+02
1.04861111E+01	9.92000000E+02
1.04888889E+01	4.68000000E+02
1.04916667E+01	6.68000000E+02
1.04944444E+01	4.07000000E+02
1.04972222E+01	1.26000000E+02
1.05000000E+01	2.46000000E+02
1.05027778E+01	5.58000000E+02
1.05055556E+01	3.10000000E+02
1.05083333E+01	-3.80000000E+02
1.05111111E+01	-4.70000000E+01
1.05138889E+01	4.34000000E+02
1.05166667E+01	4.63000000E+02
1.05194444E+01	1.00700000E+03
1.05222222E+01	4.78000000E+02
1.05250000E+01	6.78000000E+02
1.05277778E+01	4.07000000E+02
1.05305556E+01	1.26000000E+02
1.05333333E+01	2.46000000E+02
1.05361111E+01	5.78000000E+02
1.05388889E+01	3.30000000E+02
1.05416667E+01	-4.00000000E+02
1.05444444E+01	-3.00000000E+01
1.05472222E+01	4.36000000E+02
1.05500000E+01	4.68000000E+02
1.05527778E+01	1.00600000E+03
1.05555556E+01	4.73000000E+02
1.05583333E+01	6.83000000E+02
1.05611111E+01	4.12000000E+02
1.05638889E+01	1.26000000E+02
1.05666667E+01	2.36000000E+02
1.05694444E+01	5.68000000E+02
1.05722222E+01	3.30000000E+02
1.05750000E+01	-4.09000000E+02
1.05777778E+01	-4.00000000E+01
1.05805556E+01	4.56000000E+02
1.05833333E+01	4.77000000E+02
1.05861111E+01	1.00600000E+03
1.05888889E+01	4.73000000E+02
1.05916667E+01	6.78000000E+02
1.05944444E+01	3.97000000E+02
1.05972222E+01	1.16000000E+02
1.06000000E+01	2.31000000E+02
1.06027778E+01	5.48000000E+02
1.06055556E+01	3.16000000E+02
1.06083333E+01	-4.01000000E+02
1.06111111E+01	-4.50000000E+01
1.06138889E+01	4.51000000E+02
1.06166667E+01	4.82000000E+02
1.06194444E+01	1.00000000E+03
1.06222222E+01	4.73000000E+02
1.06250000E+01	6.72000000E+02
1.06277778E+01	4.02000000E+02
1.06305556E+01	1.16000000E+02
1.06333333E+01	2.21000000E+02
1.06361111E+01	5.48000000E+02
1.06388889E+01	3.25000000E+02
1.06416667E+01	-3.88000000E+02
1.06444444E+01	-4.00000000E+01
1.06472222E+01	4.34000000E+02
1.06500000E+01	4.92000000E+02
1.06527778E+01	1.00500000E+03
1.06555556E+01	4.73000000E+02
1.06583333E+01	6.67000000E+02
1.06611111E+01	3.92000000E+02
1.06638889E+01	1.07000000E+02
1.06666667E+01	2.02000000E+02
1.06694444E+01	5.29000000E+02
1.06722222E+01	3.25000000E+02
1.06750000E+01	-3.83000000E+02
1.06777778E+01	-5.00000000E+01
1.06805556E+01	4.39000000E+02
1.06833333E+01	5.07000000E+02
1.06861111E+01	1.01000000E+03
1.06888889E+01	4.73000000E+02
1.06916667E+01	6.63000000E+02
1.06944444E+01	3.82000000E+02
1.06972222E+01	1.07000000E+02
1.07000000E+01	1.97000000E+02
1.07027778E+01	5.14000000E+02
1.07055556E+01	3.16000000E+02
1.07083333E+01	-3.64000000E+02
1.07111111E+01	-6.00000000E+01
1.07138889E+01	4.29000000E+02
1.07166667E+01	5.16000000E+02
1.07194444E+01	1.01000000E+03
1.07222222E+01	4.63000000E+02
1.07250000E+01	6.63000000E+02
1.07277778E+01	3.82000000E+02
1.07305556E+01	1.09000000E+02
1.07333333E+01	1.92000000E+02
1.07361111E+01	5.04000000E+02
1.07388889E+01	3.11000000E+02
1.07416667E+01	-3.54000000E+02
1.07444444E+01	-5.70000000E+01
1.07472222E+01	4.17000000E+02
1.07500000E+01	5.25000000E+02
1.07527778E+01	1.00500000E+03
1.07555556E+01	4.53000000E+02
1.07583333E+01	6.57000000E+02
1.07611111E+01	3.73000000E+02
1.07638889E+01	8.90000000E+01
1.07666667E+01	1.87000000E+02
1.07694444E+01	5.24000000E+02
1.07722222E+01	3.35000000E+02
1.07750000E+01	-3.47000000E+02
1.07777778E+01	-5.70000000E+01
1.07805556E+01	4.09000000E+02
1.07833333E+01	5.30000000E+02
1.07861111E+01	1.00000000E+03
1.07888889E+01	4.49000000E+02
1.07916667E+01	6.42000000E+02
1.07944444E+01	3.58000000E+02
1.07972222E+01	7.00000000E+01
1.08000000E+01	1.97000000E+02
1.08027778E+01	5.29000000E+02
1.08055556E+01	3.31000000E+02
1.08083333E+01	-3.54000000E+02
1.08111111E+01	-7.20000000E+01
1.08138889E+01	4.31000000E+02
1.08166667E+01	5.45000000E+02
1.08194444E+01	9.99000000E+02
1.08222222E+01	4.39000000E+02
1.08250000E+01	6.37000000E+02
1.08277778E+01	3.53000000E+02
1.08305556E+01	7.00000000E+01
1.08333333E+01	1.97000000E+02
1.08361111E+01	5.24000000E+02
1.08388889E+01	3.26000000E+02
1.08416667E+01	-3.62000000E+02
1.08444444E+01	-6.50000000E+01
1.08472222E+01	4.31000000E+02
1.08500000E+01	5.54000000E+02
1.08527778E+01	9.94000000E+02
1.08555556E+01	4.29000000E+02
1.08583333E+01	6.23000000E+02
1.08611111E+01	3.38000000E+02
1.08638889E+01	6.00000000E+01
1.08666667E+01	1.97000000E+02
1.08694444E+01	5.09000000E+02
1.08722222E+01	3.12000000E+02
1.08750000E+01	-3.59000000E+02
1.08777778E+01	-6.20000000E+01
1.08805556E+01	4.27000000E+02
1.08833333E+01	5.59000000E+02
1.08861111E+01	9.89000000E+02
1.08888889E+01	4.24000000E+02
1.08916667E+01	6.08000000E+02
1.08944444E+01	3.19000000E+02
1.08972222E+01	4.00000000E+01
1.09000000E+01	1.67000000E+02
1.09027778E+01	5.04000000E+02
1.09055556E+01	3.36000000E+02
1.09083333E+01	-3.52000000E+02
1.09111111E+01	-5.50000000E+01
1.09138889E+01	4.12000000E+02
1.09166667E+01	5.59000000E+02
1.09194444E+01	9.73000000E+02
1.09222222E+01	4.10000000E+02
1.09250000E+01	6.08000000E+02
1.09277778E+01	3.19000000E+02
1.09305556E+01	5.00000000E+01
1.09333333E+01	1.48000000E+02
1.09361111E+01	4.56000000E+02
1.09388889E+01	3.07000000E+02
1.09416667E+01	-3.35000000E+02
1.09444444E+01	-8.20000000E+01
1.09472222E+01	4.22000000E+02
1.09500000E+01	5.69000000E+02
1.09527778E+01	9.73000000E+02
1.09555556E+01	4.05000000E+02
1.09583333E+01	5.88000000E+02
1.09611111E+01	3.09000000E+02
1.09638889E+01	3.70000000E+01
1.09666667E+01	1.58000000E+02
1.09694444E+01	4.46000000E+02
1.09722222E+01	2.87000000E+02
1.09750000E+01	-3.01000000E+02
1.09777778E+01	-7.70000000E+01
1.09805556E+01	3.83000000E+02
1.09833333E+01	5.79000000E+02
1.09861111E+01	9.68000000E+02
1.09888889E+01	3.95000000E+02
1.09916667E+01	5.84000000E+02
1.09944444E+01	2.99000000E+02
1.09972222E+01	2.80000000E+01
1.10000000E+01	1.53000000E+02
1.10027778E+01	4.46000000E+02
1.10055556E+01	2.92000000E+02
1.10083333E+01	-3.02000000E+02
