0.00000000E+00	-3.25000000E-01
2.77777780E-03	-2.73038480E-01
5.55555560E-03	-2.68038480E-01
8.33333330E-03	-3.20000000E-01
1.11111110E-02	-3.91961520E-01
1.38888890E-02	-3.96961520E-01
1.66666670E-02	-3.40000000E-01
1.94444440E-02	-2.63038480E-01
2.22222220E-02	-2.58038480E-01
2.50000000E-02	-3.15000000E-01
2.77777780E-02	-3.91961520E-01
3.05555560E-02	-4.06961520E-01
3.33333330E-02	-3.55000000E-01
3.61111110E-02	-2.83038480E-01
3.88888890E-02	-2.73038480E-01
4.16666670E-02	-3.05000000E-01
4.44444440E-02	-3.56961520E-01
4.72222220E-02	-3.86961520E-01
5.00000000E-02	-3.50000000E-01
5.27777780E-02	-3.18038480E-01
5.55555560E-02	-3.13038480E-01
5.83333330E-02	-3.50000000E-01
6.11111110E-02	-4.06961520E-01
6.38888890E-02	-4.16961520E-01
6.66666670E-02	-3.80000000E-01
6.94444440E-02	-3.18038480E-01
7.22222220E-02	-3.03038480E-01
7.50000000E-02	-3.25000000E-01
7.77777780E-02	-3.71961520E-01
8.05555560E-02	-3.71961520E-01
8.33333330E-02	-3.45000000E-01
8.61111110E-02	-3.13038480E-01
8.88888890E-02	-3.23038480E-01
9.16666670E-02	-3.60000000E-01
9.44444440E-02	-4.01961520E-01
9.72222220E-02	-4.01961520E-01
1.00000000E-01	-3.70000000E-01
1.02777780E-01	-3.13038480E-01
1.05555560E-01	-3.13038480E-01
1.08333330E-01	-3.50000000E-01
1.11111110E-01	-3.96961520E-01
1.13888890E-01	-4.16961520E-01
1.16666670E-01	-3.85000000E-01
1.19444440E-01	-3.33038480E-01
1.22222220E-01	-3.18038480E-01
1.25000000E-01	-3.50000000E-01
1.27777780E-01	-4.26961520E-01
1.30555560E-01	-4.41961520E-01
1.33333330E-01	-3.85000000E-01
1.36111110E-01	-3.38038480E-01
1.38888890E-01	-3.28038480E-01
1.41666670E-01	-4.05000000E-01
1.44444440E-01	-4.66961520E-01
1.47222220E-01	-4.76961520E-01
1.50000000E-01	-3.85000000E-01
1.52777780E-01	-3.03038480E-01
1.55555560E-01	-2.93038480E-01
1.58333330E-01	-3.60000000E-01
1.61111110E-01	-4.21961520E-01
1.63888890E-01	-4.41961520E-01
1.66666670E-01	-3.95000000E-01
1.69444440E-01	-3.23038480E-01
1.72222220E-01	-3.08038480E-01
1.75000000E-01	-3.55000000E-01
1.77777780E-01	-4.06961520E-01
1.80555560E-01	-4.01961520E-01
1.83333330E-01	-3.60000000E-01
1.86111110E-01	-3.13038480E-01
1.88888890E-01	-2.98038480E-01
1.91666670E-01	-3.25000000E-01
1.94444440E-01	-3.46961520E-01
1.97222220E-01	-3.56961520E-01
2.00000000E-01	-3.35000000E-01
2.02777780E-01	-2.98038480E-01
2.05555560E-01	-2.93038480E-01
2.08333330E-01	-3.20000000E-01
2.11111110E-01	-3.51961520E-01
2.13888890E-01	-3.36961520E-01
2.16666670E-01	-2.85000000E-01
2.19444440E-01	-2.38038480E-01
2.22222220E-01	-2.28038480E-01
2.25000000E-01	-2.30000000E-01
2.27777780E-01	-2.81961520E-01
2.30555560E-01	-2.96961520E-01
2.33333330E-01	-2.60000000E-01
2.36111110E-01	-2.18038480E-01
2.38888890E-01	-2.03038480E-01
2.41666670E-01	-2.60000000E-01
2.44444440E-01	-2.96961520E-01
2.47222220E-01	-3.21961520E-01
2.50000000E-01	-2.65000000E-01
2.52777780E-01	-2.18038480E-01
2.55555560E-01	-1.98038480E-01
2.58333330E-01	-2.20000000E-01
2.61111110E-01	-2.66961520E-01
2.63888890E-01	-3.01961520E-01
2.66666670E-01	-2.80000000E-01
2.69444440E-01	-2.63038480E-01
2.72222220E-01	-2.78038480E-01
2.75000000E-01	-3.30000000E-01
2.77777780E-01	-4.01961520E-01
2.80555560E-01	-3.96961520E-01
2.83333330E-01	-3.75000000E-01
2.86111110E-01	-3.33038480E-01
2.88888890E-01	-3.28038480E-01
2.91666670E-01	-3.50000000E-01
2.94444440E-01	-3.91961520E-01
2.97222220E-01	-3.86961520E-01
3.00000000E-01	-3.40000000E-01
3.02777780E-01	-3.18038480E-01
3.05555560E-01	-3.33038480E-01
3.08333330E-01	-3.80000000E-01
3.11111110E-01	-4.21961520E-01
3.13888890E-01	-4.01961520E-01
3.16666670E-01	-3.55000000E-01
3.19444440E-01	-3.18038480E-01
3.22222220E-01	-3.28038480E-01
3.25000000E-01	-3.85000000E-01
3.27777780E-01	-4.31961520E-01
3.30555560E-01	-4.41961520E-01
3.33333330E-01	-3.90000000E-01
3.36111110E-01	-3.38038480E-01
3.38888890E-01	-3.33038480E-01
3.41666670E-01	-3.80000000E-01
3.44444440E-01	-4.51961520E-01
3.47222220E-01	-4.51961520E-01
3.50000000E-01	-4.00000000E-01
3.52777780E-01	-3.53038480E-01
3.55555560E-01	-3.93038480E-01
3.58333330E-01	-4.65000000E-01
3.61111110E-01	-5.01961520E-01
3.63888890E-01	-5.06961520E-01
3.66666670E-01	-4.90000000E-01
3.69444440E-01	-5.23038480E-01
3.72222220E-01	-5.73038480E-01
3.75000000E-01	-6.20000000E-01
3.77777780E-01	-6.21961520E-01
3.80555560E-01	-5.36961520E-01
3.83333330E-01	-3.75000000E-01
3.86111110E-01	-1.78038480E-01
3.88888890E-01	4.19615240E-02
3.91666670E-01	2.70000000E-01
3.94444440E-01	4.78038480E-01
3.97222220E-01	6.78038480E-01
4.00000000E-01	7.85000000E-01
4.02777780E-01	7.26961520E-01
4.05555560E-01	4.21961520E-01
4.08333330E-01	2.00000000E-02
4.11111110E-01	-3.46961520E-01
4.13888890E-01	-5.16961520E-01
4.16666670E-01	-5.15000000E-01
4.19444440E-01	-4.63038480E-01
4.22222220E-01	-4.23038480E-01
4.25000000E-01	-4.35000000E-01
4.27777780E-01	-4.56961520E-01
4.30555560E-01	-4.51961520E-01
4.33333330E-01	-4.05000000E-01
4.36111110E-01	-3.48038480E-01
4.38888890E-01	-3.18038480E-01
4.41666670E-01	-3.50000000E-01
4.44444440E-01	-3.86961520E-01
4.47222220E-01	-4.06961520E-01
4.50000000E-01	-3.65000000E-01
4.52777780E-01	-3.18038480E-01
4.55555560E-01	-3.18038480E-01
4.58333330E-01	-3.75000000E-01
4.61111110E-01	-4.51961520E-01
4.63888890E-01	-4.56961520E-01
4.66666670E-01	-3.85000000E-01
4.69444440E-01	-3.18038480E-01
4.72222220E-01	-2.88038480E-01
4.75000000E-01	-3.40000000E-01
4.77777780E-01	-3.91961520E-01
4.80555560E-01	-4.01961520E-01
4.83333330E-01	-3.45000000E-01
4.86111110E-01	-3.08038480E-01
4.88888890E-01	-3.23038480E-01
4.91666670E-01	-3.70000000E-01
4.94444440E-01	-3.91961520E-01
4.97222220E-01	-3.81961520E-01
5.00000000E-01	-3.50000000E-01
5.02777780E-01	-2.98038480E-01
5.05555560E-01	-2.83038480E-01
5.08333330E-01	-3.30000000E-01
5.11111110E-01	-3.76961520E-01
5.13888890E-01	-3.81961520E-01
5.16666670E-01	-3.40000000E-01
5.19444440E-01	-2.83038480E-01
5.22222220E-01	-2.88038480E-01
5.25000000E-01	-3.65000000E-01
5.27777780E-01	-4.41961520E-01
5.30555560E-01	-4.26961520E-01
5.33333330E-01	-3.50000000E-01
5.36111110E-01	-2.93038480E-01
5.38888890E-01	-2.78038480E-01
5.41666670E-01	-3.15000000E-01
5.44444440E-01	-3.61961520E-01
5.47222220E-01	-3.91961520E-01
5.50000000E-01	-3.70000000E-01
5.52777780E-01	-3.33038480E-01
5.55555560E-01	-3.13038480E-01
5.58333330E-01	-3.60000000E-01
5.61111110E-01	-4.11961520E-01
5.63888890E-01	-3.96961520E-01
5.66666670E-01	-3.15000000E-01
5.69444440E-01	-2.48038480E-01
5.72222220E-01	-2.23038480E-01
5.75000000E-01	-2.85000000E-01
5.77777780E-01	-3.41961520E-01
5.80555560E-01	-3.46961520E-01
5.83333330E-01	-3.15000000E-01
5.86111110E-01	-2.68038480E-01
5.88888890E-01	-2.63038480E-01
5.91666670E-01	-3.05000000E-01
5.94444440E-01	-3.51961520E-01
5.97222220E-01	-3.71961520E-01
6.00000000E-01	-3.25000000E-01
6.02777780E-01	-2.63038480E-01
6.05555560E-01	-2.23038480E-01
6.08333330E-01	-2.70000000E-01
6.11111110E-01	-3.41961520E-01
6.13888890E-01	-3.61961520E-01
6.16666670E-01	-3.00000000E-01
6.19444440E-01	-2.38038480E-01
6.22222220E-01	-2.23038480E-01
6.25000000E-01	-2.75000000E-01
6.27777780E-01	-3.31961520E-01
6.30555560E-01	-3.56961520E-01
6.33333330E-01	-3.40000000E-01
6.36111110E-01	-2.98038480E-01
6.38888890E-01	-2.88038480E-01
6.41666670E-01	-3.30000000E-01
6.44444440E-01	-3.86961520E-01
6.47222220E-01	-3.86961520E-01
6.50000000E-01	-3.35000000E-01
6.52777780E-01	-2.73038480E-01
6.55555560E-01	-2.53038480E-01
6.58333330E-01	-2.95000000E-01
6.61111110E-01	-3.46961520E-01
6.63888890E-01	-3.41961520E-01
6.66666670E-01	-3.00000000E-01
6.69444440E-01	-2.33038480E-01
6.72222220E-01	-2.13038480E-01
6.75000000E-01	-2.50000000E-01
6.77777780E-01	-2.96961520E-01
6.80555560E-01	-2.96961520E-01
6.83333330E-01	-2.35000000E-01
6.86111110E-01	-1.78038480E-01
6.88888890E-01	-1.68038480E-01
6.91666670E-01	-1.85000000E-01
6.94444440E-01	-2.21961520E-01
6.97222220E-01	-2.51961520E-01
7.00000000E-01	-2.05000000E-01
7.02777780E-01	-1.33038480E-01
7.05555560E-01	-9.30384760E-02
7.08333330E-01	-1.25000000E-01
7.11111110E-01	-1.86961520E-01
7.13888890E-01	-2.16961520E-01
7.16666670E-01	-1.85000000E-01
7.19444440E-01	-1.38038480E-01
7.22222220E-01	-1.03038480E-01
7.25000000E-01	-1.10000000E-01
7.27777780E-01	-1.41961520E-01
7.30555560E-01	-1.76961520E-01
7.33333330E-01	-1.30000000E-01
7.36111110E-01	-7.80384760E-02
7.38888890E-01	-7.30384760E-02
7.41666670E-01	-1.20000000E-01
7.44444440E-01	-1.81961520E-01
7.47222220E-01	-1.71961520E-01
7.50000000E-01	-9.50000000E-02
7.52777780E-01	-2.80384760E-02
7.55555560E-01	-3.30384760E-02
7.58333330E-01	-8.00000000E-02
7.61111110E-01	-1.41961520E-01
7.63888890E-01	-1.51961520E-01
7.66666670E-01	-1.30000000E-01
7.69444440E-01	-9.80384760E-02
7.72222220E-01	-8.30384760E-02
7.75000000E-01	-1.15000000E-01
7.77777780E-01	-1.66961520E-01
7.80555560E-01	-1.66961520E-01
7.83333330E-01	-1.45000000E-01
7.86111110E-01	-8.30384760E-02
7.88888890E-01	-5.30384760E-02
7.91666670E-01	-7.50000000E-02
7.94444440E-01	-1.36961520E-01
7.97222220E-01	-1.56961520E-01
8.00000000E-01	-1.35000000E-01
8.02777780E-01	-9.80384760E-02
8.05555560E-01	-7.30384760E-02
8.08333330E-01	-1.05000000E-01
8.11111110E-01	-1.51961520E-01
8.13888890E-01	-1.56961520E-01
8.16666670E-01	-1.25000000E-01
8.19444440E-01	-8.80384760E-02
8.22222220E-01	-8.30384760E-02
8.25000000E-01	-1.00000000E-01
8.27777780E-01	-1.66961520E-01
8.30555560E-01	-1.81961520E-01
8.33333330E-01	-1.45000000E-01
8.36111110E-01	-7.80384760E-02
8.38888890E-01	-5.30384760E-02
8.41666670E-01	-9.00000000E-02
8.44444440E-01	-1.71961520E-01
8.47222220E-01	-1.91961520E-01
8.50000000E-01	-1.55000000E-01
8.52777780E-01	-1.03038480E-01
8.55555560E-01	-9.80384760E-02
8.58333330E-01	-1.40000000E-01
8.61111110E-01	-1.66961520E-01
8.63888890E-01	-1.46961520E-01
8.66666670E-01	-1.25000000E-01
8.69444440E-01	-9.80384760E-02
8.72222220E-01	-8.80384760E-02
8.75000000E-01	-1.25000000E-01
8.77777780E-01	-1.91961520E-01
8.80555560E-01	-2.01961520E-01
8.83333330E-01	-1.30000000E-01
8.86111110E-01	-4.30384760E-02
8.88888890E-01	-3.03847580E-03
8.91666670E-01	-5.00000000E-02
8.94444440E-01	-1.16961520E-01
8.97222220E-01	-1.16961520E-01
9.00000000E-01	-8.00000000E-02
9.02777780E-01	-2.80384760E-02
9.05555560E-01	-3.80384760E-02
9.08333330E-01	-9.00000000E-02
9.11111110E-01	-1.31961520E-01
9.13888890E-01	-1.31961520E-01
9.16666670E-01	-8.00000000E-02
9.19444440E-01	-4.80384760E-02
9.22222220E-01	-3.80384760E-02
9.25000000E-01	-7.50000000E-02
9.27777780E-01	-9.19615240E-02
9.30555560E-01	-5.69615240E-02
9.33333330E-01	1.00000000E-02
9.36111110E-01	7.19615240E-02
9.38888890E-01	7.69615240E-02
9.41666670E-01	4.50000000E-02
9.44444440E-01	-6.96152420E-03
9.47222220E-01	-6.96152420E-03
9.50000000E-01	4.00000000E-02
9.52777780E-01	9.69615240E-02
9.55555560E-01	1.06961520E-01
9.58333330E-01	8.00000000E-02
9.61111110E-01	2.30384760E-02
9.63888890E-01	-1.96152420E-03
9.66666670E-01	-1.00000000E-02
9.69444440E-01	2.19615240E-02
9.72222220E-01	1.69615240E-02
9.75000000E-01	-1.50000000E-02
9.77777780E-01	-4.19615240E-02
9.80555560E-01	-1.19615240E-02
9.83333330E-01	6.50000000E-02
9.86111110E-01	1.41961520E-01
9.88888890E-01	1.41961520E-01
9.91666670E-01	6.50000000E-02
9.94444440E-01	-1.96152420E-03
9.97222220E-01	-3.69615240E-02
1.00000000E+00	-5.00000000E-03
1.00277780E+00	2.19615240E-02
1.00555560E+00	6.96152420E-03
1.00833330E+00	-4.50000000E-02
1.01111110E+00	-9.69615240E-02
1.01388890E+00	-1.11961520E-01
1.01666670E+00	-1.00000000E-01
1.01944440E+00	-4.30384760E-02
1.02222220E+00	-1.80384760E-02
1.02500000E+00	-3.00000000E-02
1.02777780E+00	-8.69615240E-02
1.03055560E+00	-1.26961520E-01
1.03333330E+00	-1.05000000E-01
1.03611110E+00	-4.30384760E-02
1.03888890E+00	-3.30384760E-02
1.04166670E+00	-7.50000000E-02
1.04444440E+00	-1.51961520E-01
1.04722220E+00	-1.66961520E-01
1.05000000E+00	-1.30000000E-01
1.05277780E+00	-7.30384760E-02
1.05555560E+00	-4.80384760E-02
1.05833330E+00	-8.50000000E-02
1.06111110E+00	-1.31961520E-01
1.06388890E+00	-1.21961520E-01
1.06666670E+00	-7.00000000E-02
1.06944440E+00	-2.30384760E-02
1.07222220E+00	-3.30384760E-02
1.07500000E+00	-9.50000000E-02
1.07777780E+00	-1.41961520E-01
1.08055560E+00	-1.41961520E-01
1.08333330E+00	-8.50000000E-02
1.08611110E+00	-2.30384760E-02
1.08888890E+00	-1.30384760E-02
1.09166670E+00	-7.00000000E-02
1.09444440E+00	-1.66961520E-01
1.09722220E+00	-2.06961520E-01
1.10000000E+00	-1.90000000E-01
1.10277780E+00	-1.53038480E-01
1.10555560E+00	-1.88038480E-01
1.10833330E+00	-2.55000000E-01
1.11111110E+00	-2.81961520E-01
1.11388890E+00	-1.81961520E-01
1.11666670E+00	-3.50000000E-02
1.11944440E+00	1.26961520E-01
1.12222220E+00	2.66961520E-01
1.12500000E+00	4.05000000E-01
1.12777780E+00	6.08038480E-01
1.13055560E+00	8.08038480E-01
1.13333330E+00	9.60000000E-01
1.13611110E+00	9.96961520E-01
1.13888890E+00	8.61961520E-01
1.14166670E+00	5.35000000E-01
1.14444440E+00	1.33038480E-01
1.14722220E+00	-1.41961520E-01
1.15000000E+00	-2.35000000E-01
1.15277780E+00	-1.93038480E-01
1.15555560E+00	-1.18038480E-01
1.15833330E+00	-1.05000000E-01
1.16111110E+00	-1.61961520E-01
1.16388890E+00	-1.81961520E-01
1.16666670E+00	-1.40000000E-01
1.16944440E+00	-8.80384760E-02
1.17222220E+00	-5.80384760E-02
1.17500000E+00	-9.00000000E-02
1.17777780E+00	-1.31961520E-01
1.18055560E+00	-1.31961520E-01
1.18333330E+00	-1.15000000E-01
1.18611110E+00	-8.80384760E-02
1.18888890E+00	-8.30384760E-02
1.19166670E+00	-1.15000000E-01
1.19444440E+00	-1.56961520E-01
1.19722220E+00	-1.46961520E-01
1.20000000E+00	-1.10000000E-01
1.20277780E+00	-6.80384760E-02
1.20555560E+00	-6.80384760E-02
1.20833330E+00	-1.20000000E-01
1.21111110E+00	-1.56961520E-01
1.21388890E+00	-1.41961520E-01
1.21666670E+00	-9.50000000E-02
1.21944440E+00	-5.80384760E-02
1.22222220E+00	-4.80384760E-02
1.22500000E+00	-8.50000000E-02
1.22777780E+00	-1.41961520E-01
1.23055560E+00	-1.46961520E-01
1.23333330E+00	-1.10000000E-01
1.23611110E+00	-7.80384760E-02
1.23888890E+00	-7.80384760E-02
1.24166670E+00	-1.15000000E-01
1.24444440E+00	-1.51961520E-01
1.24722220E+00	-1.56961520E-01
1.25000000E+00	-1.15000000E-01
1.25277780E+00	-7.30384760E-02
1.25555560E+00	-6.80384760E-02
1.25833330E+00	-1.25000000E-01
1.26111110E+00	-1.81961520E-01
1.26388890E+00	-1.91961520E-01
1.26666670E+00	-1.45000000E-01
1.26944440E+00	-8.30384760E-02
1.27222220E+00	-6.30384760E-02
1.27500000E+00	-1.00000000E-01
1.27777780E+00	-1.46961520E-01
1.28055560E+00	-1.51961520E-01
1.28333330E+00	-1.10000000E-01
1.28611110E+00	-6.30384760E-02
1.28888890E+00	-5.80384760E-02
1.29166670E+00	-9.00000000E-02
1.29444440E+00	-1.56961520E-01
1.29722220E+00	-1.51961520E-01
1.30000000E+00	-1.10000000E-01
1.30277780E+00	-5.80384760E-02
1.30555560E+00	-5.30384760E-02
1.30833330E+00	-1.05000000E-01
1.31111110E+00	-1.51961520E-01
1.31388890E+00	-1.51961520E-01
1.31666670E+00	-1.15000000E-01
1.31944440E+00	-6.80384760E-02
1.32222220E+00	-4.30384760E-02
1.32500000E+00	-9.50000000E-02
1.32777780E+00	-1.41961520E-01
1.33055560E+00	-1.36961520E-01
1.33333330E+00	-9.50000000E-02
1.33611110E+00	-4.80384760E-02
1.33888890E+00	-4.80384760E-02
1.34166670E+00	-1.00000000E-01
1.34444440E+00	-1.51961520E-01
1.34722220E+00	-1.56961520E-01
1.35000000E+00	-1.25000000E-01
1.35277780E+00	-7.80384760E-02
1.35555560E+00	-7.80384760E-02
1.35833330E+00	-1.25000000E-01
1.36111110E+00	-1.86961520E-01
1.36388890E+00	-1.71961520E-01
1.36666670E+00	-1.35000000E-01
1.36944440E+00	-8.30384760E-02
1.37222220E+00	-8.30384760E-02
1.37500000E+00	-1.25000000E-01
1.37777780E+00	-1.76961520E-01
1.38055560E+00	-1.86961520E-01
1.38333330E+00	-1.50000000E-01
1.38611110E+00	-1.08038480E-01
1.38888890E+00	-7.80384760E-02
1.39166670E+00	-1.00000000E-01
1.39444440E+00	-1.51961520E-01
1.39722220E+00	-1.56961520E-01
1.40000000E+00	-1.05000000E-01
1.40277780E+00	-5.30384760E-02
1.40555560E+00	-4.30384760E-02
1.40833330E+00	-1.10000000E-01
1.41111110E+00	-1.81961520E-01
1.41388890E+00	-1.81961520E-01
1.41666670E+00	-1.35000000E-01
1.41944440E+00	-7.30384760E-02
1.42222220E+00	-8.30384760E-02
1.42500000E+00	-1.05000000E-01
1.42777780E+00	-1.56961520E-01
1.43055560E+00	-1.61961520E-01
1.43333330E+00	-1.30000000E-01
1.43611110E+00	-8.30384760E-02
1.43888890E+00	-6.30384760E-02
1.44166670E+00	-1.05000000E-01
1.44444440E+00	-1.31961520E-01
1.44722220E+00	-1.31961520E-01
1.45000000E+00	-8.00000000E-02
1.45277780E+00	-1.30384760E-02
1.45555560E+00	2.19615240E-02
1.45833330E+00	-3.00000000E-02
1.46111110E+00	-7.69615240E-02
1.46388890E+00	-8.69615240E-02
1.46666670E+00	-4.00000000E-02
1.46944440E+00	2.19615240E-02
1.47222220E+00	5.69615240E-02
1.47500000E+00	1.50000000E-02
1.47777780E+00	-6.19615240E-02
1.48055560E+00	-7.19615240E-02
1.48333330E+00	-2.50000000E-02
1.48611110E+00	1.19615240E-02
1.48888890E+00	6.96152420E-03
1.49166670E+00	-5.50000000E-02
1.49444440E+00	-1.01961520E-01
1.49722220E+00	-8.19615240E-02
1.50000000E+00	-3.00000000E-02
1.50277780E+00	3.19615240E-02
1.50555560E+00	2.69615240E-02
1.50833330E+00	-2.50000000E-02
1.51111110E+00	-5.69615240E-02
1.51388890E+00	-7.69615240E-02
1.51666670E+00	-4.50000000E-02
1.51944440E+00	-1.30384760E-02
1.52222220E+00	-8.03847580E-03
1.52500000E+00	-5.00000000E-02
1.52777780E+00	-9.19615240E-02
1.53055560E+00	-1.01961520E-01
1.53333330E+00	-3.50000000E-02
1.53611110E+00	1.19615240E-02
1.53888890E+00	2.19615240E-02
1.54166670E+00	-2.00000000E-02
1.54444440E+00	-8.19615240E-02
1.54722220E+00	-8.69615240E-02
1.55000000E+00	-5.00000000E-02
1.55277780E+00	-1.30384760E-02
1.55555560E+00	-3.03847580E-03
1.55833330E+00	-5.00000000E-02
1.56111110E+00	-1.21961520E-01
1.56388890E+00	-1.11961520E-01
1.56666670E+00	-8.00000000E-02
1.56944440E+00	-3.80384760E-02
1.57222220E+00	-3.30384760E-02
1.57500000E+00	-8.00000000E-02
1.57777780E+00	-1.21961520E-01
1.58055560E+00	-1.31961520E-01
1.58333330E+00	-8.00000000E-02
1.58611110E+00	-4.30384760E-02
1.58888890E+00	-2.30384760E-02
1.59166670E+00	-6.50000000E-02
1.59444440E+00	-1.21961520E-01
1.59722220E+00	-1.26961520E-01
1.60000000E+00	-9.50000000E-02
1.60277780E+00	-4.80384760E-02
1.60555560E+00	-5.30384760E-02
1.60833330E+00	-1.05000000E-01
1.61111110E+00	-1.56961520E-01
1.61388890E+00	-1.61961520E-01
1.61666670E+00	-1.20000000E-01
1.61944440E+00	-7.80384760E-02
1.62222220E+00	-6.80384760E-02
1.62500000E+00	-1.15000000E-01
1.62777780E+00	-1.61961520E-01
1.63055560E+00	-1.56961520E-01
1.63333330E+00	-1.00000000E-01
1.63611110E+00	-5.30384760E-02
1.63888890E+00	-5.30384760E-02
1.64166670E+00	-1.10000000E-01
1.64444440E+00	-1.66961520E-01
1.64722220E+00	-1.66961520E-01
1.65000000E+00	-1.30000000E-01
1.65277780E+00	-8.30384760E-02
1.65555560E+00	-8.30384760E-02
1.65833330E+00	-1.25000000E-01
1.66111110E+00	-1.66961520E-01
1.66388890E+00	-1.46961520E-01
1.66666670E+00	-9.50000000E-02
1.66944440E+00	-4.80384760E-02
1.67222220E+00	-4.30384760E-02
1.67500000E+00	-8.00000000E-02
1.67777780E+00	-1.16961520E-01
1.68055560E+00	-1.21961520E-01
1.68333330E+00	-9.00000000E-02
1.68611110E+00	-3.30384760E-02
1.68888890E+00	-1.80384760E-02
1.69166670E+00	-6.50000000E-02
1.69444440E+00	-1.01961520E-01
1.69722220E+00	-1.11961520E-01
1.70000000E+00	-5.50000000E-02
1.70277780E+00	6.96152420E-03
1.70555560E+00	6.96152420E-03
1.70833330E+00	-4.00000000E-02
1.71111110E+00	-9.19615240E-02
1.71388890E+00	-1.06961520E-01
1.71666670E+00	-6.00000000E-02
1.71944440E+00	-1.80384760E-02
1.72222220E+00	-3.03847580E-03
1.72500000E+00	-5.50000000E-02
1.72777780E+00	-1.16961520E-01
1.73055560E+00	-1.06961520E-01
1.73333330E+00	-5.50000000E-02
1.73611110E+00	2.19615240E-02
1.73888890E+00	3.69615240E-02
1.74166670E+00	-3.00000000E-02
1.74444440E+00	-1.01961520E-01
1.74722220E+00	-1.36961520E-01
1.75000000E+00	-1.20000000E-01
1.75277780E+00	-6.80384760E-02
1.75555560E+00	-8.30384760E-02
1.75833330E+00	-1.25000000E-01
1.76111110E+00	-1.86961520E-01
1.76388890E+00	-2.01961520E-01
1.76666670E+00	-1.75000000E-01
1.76944440E+00	-1.28038480E-01
1.77222220E+00	-1.18038480E-01
1.77500000E+00	-1.80000000E-01
1.77777780E+00	-2.36961520E-01
1.78055560E+00	-2.61961520E-01
1.78333330E+00	-2.20000000E-01
1.78611110E+00	-1.63038480E-01
1.78888890E+00	-1.63038480E-01
1.79166670E+00	-2.15000000E-01
1.79444440E+00	-2.66961520E-01
1.79722220E+00	-2.86961520E-01
1.80000000E+00	-2.25000000E-01
1.80277780E+00	-1.83038480E-01
1.80555560E+00	-1.83038480E-01
1.80833330E+00	-2.30000000E-01
1.81111110E+00	-2.86961520E-01
1.81388890E+00	-2.76961520E-01
1.81666670E+00	-2.35000000E-01
1.81944440E+00	-1.78038480E-01
1.82222220E+00	-1.98038480E-01
1.82500000E+00	-2.40000000E-01
1.82777780E+00	-2.86961520E-01
1.83055560E+00	-2.96961520E-01
1.83333330E+00	-2.50000000E-01
1.83611110E+00	-1.88038480E-01
1.83888890E+00	-1.98038480E-01
1.84166670E+00	-2.40000000E-01
1.84444440E+00	-3.01961520E-01
1.84722220E+00	-3.41961520E-01
1.85000000E+00	-3.35000000E-01
1.85277780E+00	-3.13038480E-01
1.85555560E+00	-3.18038480E-01
1.85833330E+00	-3.95000000E-01
1.86111110E+00	-4.81961520E-01
1.86388890E+00	-5.11961520E-01
1.86666670E+00	-4.40000000E-01
1.86944440E+00	-2.88038480E-01
1.87222220E+00	-1.53038480E-01
1.87500000E+00	-5.50000000E-02
1.87777780E+00	5.30384760E-02
1.88055560E+00	2.68038480E-01
1.88333330E+00	5.60000000E-01
1.88611110E+00	8.01961520E-01
1.88888890E+00	9.46961520E-01
1.89166670E+00	9.20000000E-01
1.89444440E+00	7.28038480E-01
1.89722220E+00	4.43038480E-01
1.90000000E+00	1.30000000E-01
1.90277780E+00	-1.48038480E-01
1.90555560E+00	-3.48038480E-01
1.90833330E+00	-4.60000000E-01
1.91111110E+00	-5.26961520E-01
1.91388890E+00	-5.11961520E-01
1.91666670E+00	-4.40000000E-01
1.91944440E+00	-3.58038480E-01
1.92222220E+00	-3.03038480E-01
1.92500000E+00	-3.25000000E-01
1.92777780E+00	-3.81961520E-01
1.93055560E+00	-3.86961520E-01
1.93333330E+00	-3.40000000E-01
1.93611110E+00	-2.88038480E-01
1.93888890E+00	-2.78038480E-01
1.94166670E+00	-3.25000000E-01
1.94444440E+00	-3.76961520E-01
1.94722220E+00	-3.86961520E-01
1.95000000E+00	-3.55000000E-01
1.95277780E+00	-3.03038480E-01
1.95555560E+00	-2.93038480E-01
1.95833330E+00	-3.40000000E-01
1.96111110E+00	-3.96961520E-01
1.96388890E+00	-4.11961520E-01
1.96666670E+00	-3.70000000E-01
1.96944440E+00	-3.18038480E-01
1.97222220E+00	-3.08038480E-01
1.97500000E+00	-3.45000000E-01
1.97777780E+00	-4.06961520E-01
1.98055560E+00	-4.26961520E-01
1.98333330E+00	-3.75000000E-01
1.98611110E+00	-3.23038480E-01
1.98888890E+00	-3.08038480E-01
1.99166670E+00	-3.60000000E-01
1.99444440E+00	-4.16961520E-01
1.99722220E+00	-4.11961520E-01
2.00000000E+00	-3.65000000E-01
2.00277780E+00	-3.28038480E-01
2.00555560E+00	-3.13038480E-01
2.00833330E+00	-3.50000000E-01
2.01111110E+00	-3.91961520E-01
2.01388890E+00	-4.21961520E-01
2.01666670E+00	-3.65000000E-01
2.01944440E+00	-3.08038480E-01
2.02222220E+00	-3.08038480E-01
2.02500000E+00	-3.60000000E-01
2.02777780E+00	-4.06961520E-01
2.03055560E+00	-4.26961520E-01
2.03333330E+00	-3.80000000E-01
2.03611110E+00	-3.28038480E-01
2.03888890E+00	-3.23038480E-01
2.04166670E+00	-3.60000000E-01
2.04444440E+00	-4.26961520E-01
2.04722220E+00	-4.31961520E-01
2.05000000E+00	-3.85000000E-01
2.05277780E+00	-3.38038480E-01
2.05555560E+00	-3.33038480E-01
2.05833330E+00	-3.80000000E-01
2.06111110E+00	-4.31961520E-01
2.06388890E+00	-4.41961520E-01
2.06666670E+00	-4.00000000E-01
2.06944440E+00	-3.48038480E-01
2.07222220E+00	-3.33038480E-01
2.07500000E+00	-3.80000000E-01
2.07777780E+00	-4.31961520E-01
2.08055560E+00	-4.41961520E-01
2.08333330E+00	-3.90000000E-01
2.08611110E+00	-3.38038480E-01
2.08888890E+00	-3.28038480E-01
2.09166670E+00	-3.80000000E-01
2.09444440E+00	-4.31961520E-01
2.09722220E+00	-4.31961520E-01
2.10000000E+00	-3.85000000E-01
2.10277780E+00	-3.38038480E-01
2.10555560E+00	-3.43038480E-01
2.10833330E+00	-3.80000000E-01
2.11111110E+00	-4.51961520E-01
2.11388890E+00	-4.51961520E-01
2.11666670E+00	-4.10000000E-01
2.11944440E+00	-3.53038480E-01
2.12222220E+00	-3.53038480E-01
2.12500000E+00	-3.95000000E-01
2.12777780E+00	-4.46961520E-01
2.13055560E+00	-4.61961520E-01
2.13333330E+00	-4.20000000E-01
2.13611110E+00	-3.63038480E-01
2.13888890E+00	-3.63038480E-01
2.14166670E+00	-4.00000000E-01
2.14444440E+00	-4.56961520E-01
2.14722220E+00	-4.61961520E-01
2.15000000E+00	-4.10000000E-01
2.15277780E+00	-3.83038480E-01
2.15555560E+00	-3.78038480E-01
2.15833330E+00	-4.10000000E-01
2.16111110E+00	-4.61961520E-01
2.16388890E+00	-4.56961520E-01
2.16666670E+00	-4.15000000E-01
2.16944440E+00	-3.78038480E-01
2.17222220E+00	-3.63038480E-01
2.17500000E+00	-4.05000000E-01
2.17777780E+00	-4.61961520E-01
2.18055560E+00	-4.56961520E-01
2.18333330E+00	-4.15000000E-01
2.18611110E+00	-3.53038480E-01
2.18888890E+00	-3.48038480E-01
2.19166670E+00	-3.90000000E-01
2.19444440E+00	-4.36961520E-01
2.19722220E+00	-4.41961520E-01
2.20000000E+00	-3.80000000E-01
2.20277780E+00	-3.33038480E-01
2.20555560E+00	-3.08038480E-01
2.20833330E+00	-3.35000000E-01
2.21111110E+00	-3.86961520E-01
2.21388890E+00	-3.86961520E-01
2.21666670E+00	-3.30000000E-01
2.21944440E+00	-2.78038480E-01
2.22222220E+00	-2.58038480E-01
2.22500000E+00	-3.05000000E-01
2.22777780E+00	-3.51961520E-01
2.23055560E+00	-3.46961520E-01
2.23333330E+00	-3.00000000E-01
2.23611110E+00	-2.53038480E-01
2.23888890E+00	-2.38038480E-01
2.24166670E+00	-2.80000000E-01
2.24444440E+00	-3.46961520E-01
2.24722220E+00	-3.46961520E-01
2.25000000E+00	-3.00000000E-01
2.25277780E+00	-2.53038480E-01
2.25555560E+00	-2.38038480E-01
2.25833330E+00	-2.70000000E-01
2.26111110E+00	-3.26961520E-01
2.26388890E+00	-3.31961520E-01
2.26666670E+00	-2.95000000E-01
2.26944440E+00	-2.48038480E-01
2.27222220E+00	-2.38038480E-01
2.27500000E+00	-2.85000000E-01
2.27777780E+00	-3.36961520E-01
2.28055560E+00	-3.36961520E-01
2.28333330E+00	-2.95000000E-01
2.28611110E+00	-2.53038480E-01
2.28888890E+00	-2.53038480E-01
2.29166670E+00	-2.95000000E-01
2.29444440E+00	-3.51961520E-01
2.29722220E+00	-3.51961520E-01
2.30000000E+00	-3.10000000E-01
2.30277780E+00	-2.58038480E-01
2.30555560E+00	-2.53038480E-01
2.30833330E+00	-3.05000000E-01
2.31111110E+00	-3.51961520E-01
2.31388890E+00	-3.46961520E-01
2.31666670E+00	-3.10000000E-01
2.31944440E+00	-2.58038480E-01
2.32222220E+00	-2.63038480E-01
2.32500000E+00	-3.05000000E-01
2.32777780E+00	-3.51961520E-01
2.33055560E+00	-3.61961520E-01
2.33333330E+00	-3.20000000E-01
2.33611110E+00	-2.88038480E-01
2.33888890E+00	-2.83038480E-01
2.34166670E+00	-3.30000000E-01
2.34444440E+00	-3.81961520E-01
2.34722220E+00	-3.91961520E-01
2.35000000E+00	-3.40000000E-01
2.35277780E+00	-2.98038480E-01
2.35555560E+00	-2.98038480E-01
2.35833330E+00	-3.35000000E-01
2.36111110E+00	-3.91961520E-01
2.36388890E+00	-4.01961520E-01
2.36666670E+00	-3.50000000E-01
2.36944440E+00	-3.08038480E-01
2.37222220E+00	-2.93038480E-01
2.37500000E+00	-3.30000000E-01
2.37777780E+00	-3.91961520E-01
2.38055560E+00	-4.01961520E-01
2.38333330E+00	-3.55000000E-01
2.38611110E+00	-3.08038480E-01
2.38888890E+00	-3.03038480E-01
2.39166670E+00	-3.55000000E-01
2.39444440E+00	-4.06961520E-01
2.39722220E+00	-4.06961520E-01
2.40000000E+00	-3.75000000E-01
2.40277780E+00	-3.28038480E-01
2.40555560E+00	-3.08038480E-01
2.40833330E+00	-3.45000000E-01
2.41111110E+00	-3.86961520E-01
2.41388890E+00	-3.81961520E-01
2.41666670E+00	-3.30000000E-01
2.41944440E+00	-2.78038480E-01
2.42222220E+00	-2.68038480E-01
2.42500000E+00	-3.05000000E-01
2.42777780E+00	-3.41961520E-01
2.43055560E+00	-3.26961520E-01
2.43333330E+00	-2.90000000E-01
2.43611110E+00	-2.38038480E-01
2.43888890E+00	-2.18038480E-01
2.44166670E+00	-2.65000000E-01
2.44444440E+00	-3.06961520E-01
2.44722220E+00	-2.96961520E-01
2.45000000E+00	-2.55000000E-01
2.45277780E+00	-1.98038480E-01
2.45555560E+00	-1.93038480E-01
2.45833330E+00	-2.35000000E-01
2.46111110E+00	-2.96961520E-01
2.46388890E+00	-3.06961520E-01
2.46666670E+00	-2.65000000E-01
2.46944440E+00	-2.23038480E-01
2.47222220E+00	-2.08038480E-01
2.47500000E+00	-2.50000000E-01
2.47777780E+00	-3.01961520E-01
2.48055560E+00	-3.01961520E-01
2.48333330E+00	-2.50000000E-01
2.48611110E+00	-1.93038480E-01
2.48888890E+00	-1.63038480E-01
2.49166670E+00	-2.15000000E-01
2.49444440E+00	-2.86961520E-01
2.49722220E+00	-3.21961520E-01
2.50000000E+00	-2.90000000E-01
2.50277780E+00	-2.63038480E-01
2.50555560E+00	-2.58038480E-01
2.50833330E+00	-3.35000000E-01
2.51111110E+00	-4.01961520E-01
2.51388890E+00	-4.11961520E-01
2.51666670E+00	-3.75000000E-01
2.51944440E+00	-3.33038480E-01
2.52222220E+00	-3.38038480E-01
2.52500000E+00	-3.80000000E-01
2.52777780E+00	-4.26961520E-01
2.53055560E+00	-4.31961520E-01
2.53333330E+00	-3.95000000E-01
2.53611110E+00	-3.48038480E-01
2.53888890E+00	-3.38038480E-01
2.54166670E+00	-3.80000000E-01
2.54444440E+00	-4.41961520E-01
2.54722220E+00	-4.51961520E-01
2.55000000E+00	-4.00000000E-01
2.55277780E+00	-3.53038480E-01
2.55555560E+00	-3.48038480E-01
2.55833330E+00	-3.95000000E-01
2.56111110E+00	-4.41961520E-01
2.56388890E+00	-4.46961520E-01
2.56666670E+00	-4.00000000E-01
2.56944440E+00	-3.53038480E-01
2.57222220E+00	-3.43038480E-01
2.57500000E+00	-3.85000000E-01
2.57777780E+00	-4.41961520E-01
2.58055560E+00	-4.46961520E-01
2.58333330E+00	-4.05000000E-01
2.58611110E+00	-3.68038480E-01
2.58888890E+00	-3.73038480E-01
2.59166670E+00	-4.45000000E-01
2.59444440E+00	-5.16961520E-01
2.59722220E+00	-5.61961520E-01
2.60000000E+00	-5.35000000E-01
2.60277780E+00	-5.18038480E-01
2.60555560E+00	-5.48038480E-01
2.60833330E+00	-5.95000000E-01
2.61111110E+00	-5.81961520E-01
2.61388890E+00	-4.91961520E-01
2.61666670E+00	-3.15000000E-01
2.61944440E+00	-1.28038480E-01
2.62222220E+00	6.69615240E-02
2.62500000E+00	2.75000000E-01
2.62777780E+00	4.63038480E-01
2.63055560E+00	6.18038480E-01
2.63333330E+00	6.95000000E-01
2.63611110E+00	6.21961520E-01
2.63888890E+00	3.36961520E-01
2.64166670E+00	-6.50000000E-02
2.64444440E+00	-4.21961520E-01
2.64722220E+00	-5.81961520E-01
2.65000000E+00	-5.75000000E-01
2.65277780E+00	-4.83038480E-01
2.65555560E+00	-4.18038480E-01
2.65833330E+00	-4.30000000E-01
2.66111110E+00	-4.76961520E-01
2.66388890E+00	-4.91961520E-01
2.66666670E+00	-4.50000000E-01
2.66944440E+00	-3.93038480E-01
2.67222220E+00	-3.78038480E-01
2.67500000E+00	-4.25000000E-01
2.67777780E+00	-4.76961520E-01
2.68055560E+00	-4.91961520E-01
2.68333330E+00	-4.65000000E-01
2.68611110E+00	-4.18038480E-01
2.68888890E+00	-3.93038480E-01
2.69166670E+00	-4.40000000E-01
2.69444440E+00	-4.96961520E-01
2.69722220E+00	-5.11961520E-01
2.70000000E+00	-4.55000000E-01
2.70277780E+00	-3.93038480E-01
2.70555560E+00	-3.88038480E-01
2.70833330E+00	-4.40000000E-01
2.71111110E+00	-4.91961520E-01
2.71388890E+00	-4.91961520E-01
2.71666670E+00	-4.55000000E-01
2.71944440E+00	-4.03038480E-01
2.72222220E+00	-3.88038480E-01
2.72500000E+00	-4.35000000E-01
2.72777780E+00	-4.81961520E-01
2.73055560E+00	-4.91961520E-01
2.73333330E+00	-4.50000000E-01
2.73611110E+00	-3.88038480E-01
2.73888890E+00	-3.78038480E-01
2.74166670E+00	-4.25000000E-01
2.74444440E+00	-4.71961520E-01
2.74722220E+00	-4.81961520E-01
2.75000000E+00	-4.40000000E-01
2.75277780E+00	-3.88038480E-01
2.75555560E+00	-3.93038480E-01
2.75833330E+00	-4.30000000E-01
2.76111110E+00	-4.86961520E-01
2.76388890E+00	-4.86961520E-01
2.76666670E+00	-4.50000000E-01
2.76944440E+00	-3.93038480E-01
2.77222220E+00	-3.93038480E-01
2.77500000E+00	-4.45000000E-01
2.77777780E+00	-4.91961520E-01
2.78055560E+00	-4.96961520E-01
2.78333330E+00	-4.40000000E-01
2.78611110E+00	-4.08038480E-01
2.78888890E+00	-3.83038480E-01
2.79166670E+00	-4.25000000E-01
2.79444440E+00	-4.66961520E-01
2.79722220E+00	-4.81961520E-01
2.80000000E+00	-4.35000000E-01
2.80277780E+00	-3.88038480E-01
2.80555560E+00	-3.73038480E-01
2.80833330E+00	-4.15000000E-01
2.81111110E+00	-4.71961520E-01
2.81388890E+00	-4.71961520E-01
2.81666670E+00	-4.45000000E-01
2.81944440E+00	-3.88038480E-01
2.82222220E+00	-3.83038480E-01
2.82500000E+00	-4.30000000E-01
2.82777780E+00	-4.71961520E-01
2.83055560E+00	-4.81961520E-01
2.83333330E+00	-4.40000000E-01
2.83611110E+00	-3.88038480E-01
2.83888890E+00	-3.78038480E-01
2.84166670E+00	-4.20000000E-01
2.84444440E+00	-4.81961520E-01
2.84722220E+00	-4.86961520E-01
2.85000000E+00	-4.35000000E-01
2.85277780E+00	-3.93038480E-01
2.85555560E+00	-3.88038480E-01
2.85833330E+00	-4.30000000E-01
2.86111110E+00	-4.71961520E-01
2.86388890E+00	-4.76961520E-01
2.86666670E+00	-4.35000000E-01
2.86944440E+00	-3.93038480E-01
2.87222220E+00	-3.83038480E-01
2.87500000E+00	-4.30000000E-01
2.87777780E+00	-4.81961520E-01
2.88055560E+00	-4.91961520E-01
2.88333330E+00	-4.45000000E-01
2.88611110E+00	-4.08038480E-01
2.88888890E+00	-3.88038480E-01
2.89166670E+00	-4.45000000E-01
2.89444440E+00	-5.01961520E-01
2.89722220E+00	-5.01961520E-01
2.90000000E+00	-4.60000000E-01
2.90277780E+00	-4.08038480E-01
2.90555560E+00	-4.03038480E-01
2.90833330E+00	-4.40000000E-01
2.91111110E+00	-4.86961520E-01
2.91388890E+00	-4.91961520E-01
2.91666670E+00	-4.45000000E-01
2.91944440E+00	-3.98038480E-01
2.92222220E+00	-3.78038480E-01
2.92500000E+00	-4.15000000E-01
2.92777780E+00	-4.56961520E-01
2.93055560E+00	-4.41961520E-01
2.93333330E+00	-3.85000000E-01
2.93611110E+00	-3.23038480E-01
2.93888890E+00	-3.13038480E-01
2.94166670E+00	-3.60000000E-01
2.94444440E+00	-4.01961520E-01
2.94722220E+00	-3.91961520E-01
2.95000000E+00	-3.45000000E-01
2.95277780E+00	-2.98038480E-01
2.95555560E+00	-2.83038480E-01
2.95833330E+00	-3.20000000E-01
2.96111110E+00	-3.76961520E-01
2.96388890E+00	-3.76961520E-01
2.96666670E+00	-3.20000000E-01
2.96944440E+00	-2.78038480E-01
2.97222220E+00	-2.68038480E-01
2.97500000E+00	-3.20000000E-01
2.97777780E+00	-3.61961520E-01
2.98055560E+00	-3.71961520E-01
2.98333330E+00	-3.20000000E-01
2.98611110E+00	-2.68038480E-01
2.98888890E+00	-2.78038480E-01
2.99166670E+00	-3.10000000E-01
2.99444440E+00	-3.61961520E-01
2.99722220E+00	-3.66961520E-01
3.00000000E+00	-3.20000000E-01
3.00277780E+00	-2.73038480E-01
3.00555560E+00	-2.63038480E-01
3.00833330E+00	-3.00000000E-01
3.01111110E+00	-3.51961520E-01
3.01388890E+00	-3.51961520E-01
3.01666670E+00	-3.15000000E-01
3.01944440E+00	-2.58038480E-01
3.02222220E+00	-2.53038480E-01
3.02500000E+00	-2.95000000E-01
3.02777780E+00	-3.46961520E-01
3.03055560E+00	-3.56961520E-01
3.03333330E+00	-3.15000000E-01
3.03611110E+00	-2.63038480E-01
3.03888890E+00	-2.68038480E-01
3.04166670E+00	-3.20000000E-01
3.04444440E+00	-3.56961520E-01
3.04722220E+00	-3.66961520E-01
3.05000000E+00	-3.15000000E-01
3.05277780E+00	-2.78038480E-01
3.05555560E+00	-2.78038480E-01
3.05833330E+00	-3.20000000E-01
3.06111110E+00	-3.66961520E-01
3.06388890E+00	-3.86961520E-01
3.06666670E+00	-3.45000000E-01
3.06944440E+00	-3.03038480E-01
3.07222220E+00	-2.88038480E-01
3.07500000E+00	-3.20000000E-01
3.07777780E+00	-3.76961520E-01
3.08055560E+00	-3.76961520E-01
3.08333330E+00	-3.35000000E-01
3.08611110E+00	-2.93038480E-01
3.08888890E+00	-2.83038480E-01
3.09166670E+00	-3.35000000E-01
3.09444440E+00	-3.86961520E-01
3.09722220E+00	-3.91961520E-01
3.10000000E+00	-3.50000000E-01
3.10277780E+00	-3.13038480E-01
3.10555560E+00	-2.88038480E-01
3.10833330E+00	-3.50000000E-01
3.11111110E+00	-3.91961520E-01
3.11388890E+00	-4.01961520E-01
3.11666670E+00	-3.55000000E-01
3.11944440E+00	-3.13038480E-01
3.12222220E+00	-2.98038480E-01
3.12500000E+00	-3.50000000E-01
3.12777780E+00	-4.01961520E-01
3.13055560E+00	-4.06961520E-01
3.13333330E+00	-3.60000000E-01
3.13611110E+00	-3.28038480E-01
3.13888890E+00	-3.08038480E-01
3.14166670E+00	-3.30000000E-01
3.14444440E+00	-3.91961520E-01
3.14722220E+00	-3.76961520E-01
3.15000000E+00	-3.35000000E-01
3.15277780E+00	-2.78038480E-01
3.15555560E+00	-2.63038480E-01
3.15833330E+00	-3.15000000E-01
3.16111110E+00	-3.51961520E-01
3.16388890E+00	-3.51961520E-01
3.16666670E+00	-2.90000000E-01
3.16944440E+00	-2.43038480E-01
3.17222220E+00	-2.28038480E-01
3.17500000E+00	-2.75000000E-01
3.17777780E+00	-3.21961520E-01
3.18055560E+00	-3.21961520E-01
3.18333330E+00	-2.80000000E-01
3.18611110E+00	-2.23038480E-01
3.18888890E+00	-2.18038480E-01
3.19166670E+00	-2.55000000E-01
3.19444440E+00	-3.06961520E-01
3.19722220E+00	-2.91961520E-01
3.20000000E+00	-2.60000000E-01
3.20277780E+00	-2.13038480E-01
3.20555560E+00	-2.08038480E-01
3.20833330E+00	-2.60000000E-01
3.21111110E+00	-3.11961520E-01
3.21388890E+00	-3.11961520E-01
3.21666670E+00	-2.75000000E-01
3.21944440E+00	-2.08038480E-01
3.22222220E+00	-1.98038480E-01
3.22500000E+00	-2.50000000E-01
3.22777780E+00	-2.76961520E-01
3.23055560E+00	-2.61961520E-01
3.23333330E+00	-2.25000000E-01
3.23611110E+00	-2.03038480E-01
3.23888890E+00	-2.43038480E-01
3.24166670E+00	-3.00000000E-01
3.24444440E+00	-3.51961520E-01
3.24722220E+00	-3.56961520E-01
3.25000000E+00	-3.50000000E-01
3.25277780E+00	-3.08038480E-01
3.25555560E+00	-3.13038480E-01
3.25833330E+00	-3.70000000E-01
3.26111110E+00	-4.31961520E-01
3.26388890E+00	-4.36961520E-01
3.26666670E+00	-3.95000000E-01
3.26944440E+00	-3.48038480E-01
3.27222220E+00	-3.33038480E-01
3.27500000E+00	-3.90000000E-01
3.27777780E+00	-4.36961520E-01
3.28055560E+00	-4.41961520E-01
3.28333330E+00	-4.00000000E-01
3.28611110E+00	-3.48038480E-01
3.28888890E+00	-3.38038480E-01
3.29166670E+00	-3.85000000E-01
3.29444440E+00	-4.36961520E-01
3.29722220E+00	-4.41961520E-01
3.30000000E+00	-4.00000000E-01
3.30277780E+00	-3.53038480E-01
3.30555560E+00	-3.58038480E-01
3.30833330E+00	-4.00000000E-01
3.31111110E+00	-4.46961520E-01
3.31388890E+00	-4.51961520E-01
3.31666670E+00	-4.25000000E-01
3.31944440E+00	-4.08038480E-01
3.32222220E+00	-4.33038480E-01
3.32500000E+00	-5.10000000E-01
3.32777780E+00	-5.76961520E-01
3.33055560E+00	-6.16961520E-01
3.33333330E+00	-6.25000000E-01
3.33611110E+00	-5.88038480E-01
3.33888890E+00	-5.28038480E-01
3.34166670E+00	-4.80000000E-01
3.34444440E+00	-4.41961520E-01
3.34722220E+00	-3.71961520E-01
3.35000000E+00	-2.35000000E-01
3.35277780E+00	-4.30384760E-02
3.35555560E+00	1.61961520E-01
3.35833330E+00	3.50000000E-01
3.36111110E+00	4.93038480E-01
3.36388890E+00	6.13038480E-01
3.36666670E+00	7.20000000E-01
3.36944440E+00	6.86961520E-01
3.37222220E+00	4.46961520E-01
3.37500000E+00	5.00000000E-02
3.37777780E+00	-3.21961520E-01
3.38055560E+00	-5.51961520E-01
3.38333330E+00	-5.80000000E-01
3.38611110E+00	-5.13038480E-01
3.38888890E+00	-4.43038480E-01
3.39166670E+00	-4.45000000E-01
3.39444440E+00	-4.96961520E-01
3.39722220E+00	-5.06961520E-01
3.40000000E+00	-4.60000000E-01
3.40277780E+00	-4.13038480E-01
3.40555560E+00	-3.93038480E-01
3.40833330E+00	-4.35000000E-01
3.41111110E+00	-4.91961520E-01
3.41388890E+00	-5.06961520E-01
3.41666670E+00	-4.55000000E-01
3.41944440E+00	-4.03038480E-01
3.42222220E+00	-3.93038480E-01
3.42500000E+00	-4.35000000E-01
3.42777780E+00	-4.86961520E-01
3.43055560E+00	-4.86961520E-01
3.43333330E+00	-4.50000000E-01
3.43611110E+00	-4.08038480E-01
3.43888890E+00	-4.08038480E-01
3.44166670E+00	-4.55000000E-01
3.44444440E+00	-4.96961520E-01
3.44722220E+00	-4.91961520E-01
3.45000000E+00	-4.55000000E-01
3.45277780E+00	-4.03038480E-01
3.45555560E+00	-3.93038480E-01
3.45833330E+00	-4.40000000E-01
3.46111110E+00	-5.01961520E-01
3.46388890E+00	-4.91961520E-01
3.46666670E+00	-4.60000000E-01
3.46944440E+00	-4.08038480E-01
3.47222220E+00	-3.98038480E-01
3.47500000E+00	-4.50000000E-01
3.47777780E+00	-4.96961520E-01
3.48055560E+00	-5.01961520E-01
3.48333330E+00	-4.45000000E-01
3.48611110E+00	-4.03038480E-01
3.48888890E+00	-3.83038480E-01
3.49166670E+00	-4.35000000E-01
3.49444440E+00	-4.86961520E-01
3.49722220E+00	-4.91961520E-01
3.50000000E+00	-4.50000000E-01
3.50277780E+00	-4.03038480E-01
3.50555560E+00	-3.93038480E-01
3.50833330E+00	-4.40000000E-01
3.51111110E+00	-4.96961520E-01
3.51388890E+00	-4.91961520E-01
3.51666670E+00	-4.65000000E-01
3.51944440E+00	-4.18038480E-01
3.52222220E+00	-3.88038480E-01
3.52500000E+00	-4.40000000E-01
3.52777780E+00	-4.91961520E-01
3.53055560E+00	-5.01961520E-01
3.53333330E+00	-4.45000000E-01
3.53611110E+00	-3.88038480E-01
3.53888890E+00	-3.78038480E-01
3.54166670E+00	-4.35000000E-01
3.54444440E+00	-4.76961520E-01
3.54722220E+00	-4.86961520E-01
3.55000000E+00	-4.40000000E-01
3.55277780E+00	-3.98038480E-01
3.55555560E+00	-3.88038480E-01
3.55833330E+00	-4.35000000E-01
3.56111110E+00	-4.86961520E-01
3.56388890E+00	-4.81961520E-01
3.56666670E+00	-4.50000000E-01
3.56944440E+00	-4.13038480E-01
3.57222220E+00	-4.08038480E-01
3.57500000E+00	-4.55000000E-01
3.57777780E+00	-4.86961520E-01
3.58055560E+00	-5.06961520E-01
3.58333330E+00	-4.50000000E-01
3.58611110E+00	-4.13038480E-01
3.58888890E+00	-3.98038480E-01
3.59166670E+00	-4.55000000E-01
3.59444440E+00	-5.01961520E-01
3.59722220E+00	-5.11961520E-01
3.60000000E+00	-4.65000000E-01
3.60277780E+00	-4.13038480E-01
3.60555560E+00	-4.23038480E-01
3.60833330E+00	-4.60000000E-01
3.61111110E+00	-5.01961520E-01
3.61388890E+00	-5.11961520E-01
3.61666670E+00	-4.75000000E-01
3.61944440E+00	-4.43038480E-01
3.62222220E+00	-4.23038480E-01
3.62500000E+00	-4.55000000E-01
3.62777780E+00	-5.01961520E-01
3.63055560E+00	-5.01961520E-01
3.63333330E+00	-4.60000000E-01
3.63611110E+00	-4.13038480E-01
3.63888890E+00	-4.08038480E-01
3.64166670E+00	-4.45000000E-01
3.64444440E+00	-5.06961520E-01
3.64722220E+00	-5.01961520E-01
3.65000000E+00	-4.50000000E-01
3.65277780E+00	-3.88038480E-01
3.65555560E+00	-3.73038480E-01
3.65833330E+00	-4.20000000E-01
3.66111110E+00	-4.46961520E-01
3.66388890E+00	-4.36961520E-01
3.66666670E+00	-3.70000000E-01
3.66944440E+00	-3.33038480E-01
3.67222220E+00	-3.28038480E-01
3.67500000E+00	-3.70000000E-01
3.67777780E+00	-4.21961520E-01
3.68055560E+00	-4.06961520E-01
3.68333330E+00	-3.60000000E-01
3.68611110E+00	-3.13038480E-01
3.68888890E+00	-2.93038480E-01
3.69166670E+00	-3.45000000E-01
3.69444440E+00	-4.01961520E-01
3.69722220E+00	-4.01961520E-01
3.70000000E+00	-3.50000000E-01
3.70277780E+00	-3.08038480E-01
3.70555560E+00	-3.08038480E-01
3.70833330E+00	-3.40000000E-01
3.71111110E+00	-3.86961520E-01
3.71388890E+00	-3.96961520E-01
3.71666670E+00	-3.45000000E-01
3.71944440E+00	-3.08038480E-01
3.72222220E+00	-2.88038480E-01
3.72500000E+00	-3.35000000E-01
3.72777780E+00	-3.66961520E-01
3.73055560E+00	-3.81961520E-01
3.73333330E+00	-3.45000000E-01
3.73611110E+00	-3.13038480E-01
3.73888890E+00	-2.98038480E-01
3.74166670E+00	-3.50000000E-01
3.74444440E+00	-4.01961520E-01
3.74722220E+00	-4.06961520E-01
3.75000000E+00	-3.60000000E-01
3.75277780E+00	-3.18038480E-01
3.75555560E+00	-3.13038480E-01
3.75833330E+00	-3.50000000E-01
3.76111110E+00	-4.16961520E-01
3.76388890E+00	-4.11961520E-01
3.76666670E+00	-3.80000000E-01
3.76944440E+00	-3.28038480E-01
3.77222220E+00	-3.23038480E-01
3.77500000E+00	-3.70000000E-01
3.77777780E+00	-4.11961520E-01
3.78055560E+00	-4.26961520E-01
3.78333330E+00	-3.75000000E-01
3.78611110E+00	-3.33038480E-01
3.78888890E+00	-3.18038480E-01
3.79166670E+00	-3.70000000E-01
3.79444440E+00	-4.06961520E-01
3.79722220E+00	-4.26961520E-01
3.80000000E+00	-3.70000000E-01
3.80277780E+00	-3.23038480E-01
3.80555560E+00	-3.18038480E-01
3.80833330E+00	-3.70000000E-01
3.81111110E+00	-4.21961520E-01
3.81388890E+00	-4.31961520E-01
3.81666670E+00	-3.85000000E-01
3.81944440E+00	-3.43038480E-01
3.82222220E+00	-3.38038480E-01
3.82500000E+00	-3.80000000E-01
3.82777780E+00	-4.36961520E-01
3.83055560E+00	-4.36961520E-01
3.83333330E+00	-3.95000000E-01
3.83611110E+00	-3.53038480E-01
3.83888890E+00	-3.33038480E-01
3.84166670E+00	-3.85000000E-01
3.84444440E+00	-4.31961520E-01
3.84722220E+00	-4.41961520E-01
3.85000000E+00	-3.90000000E-01
3.85277780E+00	-3.43038480E-01
3.85555560E+00	-3.33038480E-01
3.85833330E+00	-3.65000000E-01
3.86111110E+00	-4.06961520E-01
3.86388890E+00	-4.06961520E-01
3.86666670E+00	-3.45000000E-01
3.86944440E+00	-3.03038480E-01
3.87222220E+00	-2.78038480E-01
3.87500000E+00	-3.15000000E-01
3.87777780E+00	-3.61961520E-01
3.88055560E+00	-3.61961520E-01
3.88333330E+00	-3.10000000E-01
3.88611110E+00	-2.53038480E-01
3.88888890E+00	-2.58038480E-01
3.89166670E+00	-2.85000000E-01
3.89444440E+00	-3.26961520E-01
3.89722220E+00	-3.21961520E-01
3.90000000E+00	-2.75000000E-01
3.90277780E+00	-2.33038480E-01
3.90555560E+00	-2.13038480E-01
3.90833330E+00	-2.70000000E-01
3.91111110E+00	-3.26961520E-01
3.91388890E+00	-3.31961520E-01
3.91666670E+00	-3.00000000E-01
3.91944440E+00	-2.38038480E-01
3.92222220E+00	-2.38038480E-01
3.92500000E+00	-2.70000000E-01
3.92777780E+00	-3.11961520E-01
3.93055560E+00	-2.96961520E-01
3.93333330E+00	-2.30000000E-01
3.93611110E+00	-2.08038480E-01
3.93888890E+00	-2.48038480E-01
3.94166670E+00	-3.10000000E-01
3.94444440E+00	-3.61961520E-01
3.94722220E+00	-3.61961520E-01
3.95000000E+00	-3.15000000E-01
3.95277780E+00	-2.88038480E-01
3.95555560E+00	-2.98038480E-01
3.95833330E+00	-3.60000000E-01
3.96111110E+00	-4.16961520E-01
3.96388890E+00	-4.16961520E-01
3.96666670E+00	-3.90000000E-01
3.96944440E+00	-3.53038480E-01
3.97222220E+00	-3.53038480E-01
3.97500000E+00	-4.05000000E-01
3.97777780E+00	-4.51961520E-01
3.98055560E+00	-4.51961520E-01
3.98333330E+00	-4.20000000E-01
3.98611110E+00	-3.73038480E-01
3.98888890E+00	-3.63038480E-01
3.99166670E+00	-4.15000000E-01
3.99444440E+00	-4.56961520E-01
3.99722220E+00	-4.71961520E-01
4.00000000E+00	-4.35000000E-01
4.00277780E+00	-3.88038480E-01
4.00555560E+00	-3.78038480E-01
4.00833330E+00	-4.30000000E-01
4.01111110E+00	-4.81961520E-01
4.01388890E+00	-4.86961520E-01
4.01666670E+00	-4.40000000E-01
4.01944440E+00	-3.93038480E-01
4.02222220E+00	-3.83038480E-01
4.02500000E+00	-4.25000000E-01
4.02777780E+00	-4.76961520E-01
4.03055560E+00	-5.01961520E-01
4.03333330E+00	-4.70000000E-01
4.03611110E+00	-4.63038480E-01
4.03888890E+00	-4.73038480E-01
4.04166670E+00	-5.40000000E-01
4.04444440E+00	-6.51961520E-01
4.04722220E+00	-6.86961520E-01
4.05000000E+00	-6.15000000E-01
4.05277780E+00	-4.68038480E-01
4.05555560E+00	-3.53038480E-01
4.05833330E+00	-2.60000000E-01
4.06111110E+00	-1.31961520E-01
4.06388890E+00	1.18038480E-01
4.06666670E+00	4.30000000E-01
4.06944440E+00	6.71961520E-01
4.07222220E+00	7.46961520E-01
4.07500000E+00	5.70000000E-01
4.07777780E+00	1.98038480E-01
4.08055560E+00	-1.86961520E-01
4.08333330E+00	-4.35000000E-01
4.08611110E+00	-5.43038480E-01
4.08888890E+00	-5.58038480E-01
4.09166670E+00	-5.80000000E-01
4.09444440E+00	-5.76961520E-01
4.09722220E+00	-5.51961520E-01
4.10000000E+00	-4.95000000E-01
4.10277780E+00	-4.48038480E-01
4.10555560E+00	-4.33038480E-01
4.10833330E+00	-4.75000000E-01
4.11111110E+00	-5.06961520E-01
4.11388890E+00	-5.11961520E-01
4.11666670E+00	-4.70000000E-01
4.11944440E+00	-4.33038480E-01
4.12222220E+00	-4.33038480E-01
4.12500000E+00	-4.80000000E-01
4.12777780E+00	-5.26961520E-01
4.13055560E+00	-5.26961520E-01
4.13333330E+00	-4.90000000E-01
4.13611110E+00	-4.43038480E-01
4.13888890E+00	-4.38038480E-01
4.14166670E+00	-4.85000000E-01
4.14444440E+00	-5.26961520E-01
4.14722220E+00	-5.41961520E-01
4.15000000E+00	-4.80000000E-01
4.15277780E+00	-4.43038480E-01
4.15555560E+00	-4.33038480E-01
4.15833330E+00	-4.80000000E-01
4.16111110E+00	-5.31961520E-01
4.16388890E+00	-5.31961520E-01
4.16666670E+00	-4.90000000E-01
4.16944440E+00	-4.53038480E-01
4.17222220E+00	-4.48038480E-01
4.17500000E+00	-4.85000000E-01
4.17777780E+00	-5.31961520E-01
4.18055560E+00	-5.36961520E-01
4.18333330E+00	-4.85000000E-01
4.18611110E+00	-4.43038480E-01
4.18888890E+00	-4.33038480E-01
4.19166670E+00	-4.85000000E-01
4.19444440E+00	-5.26961520E-01
4.19722220E+00	-5.36961520E-01
4.20000000E+00	-4.90000000E-01
4.20277780E+00	-4.53038480E-01
4.20555560E+00	-4.43038480E-01
4.20833330E+00	-4.90000000E-01
4.21111110E+00	-5.31961520E-01
4.21388890E+00	-5.26961520E-01
4.21666670E+00	-4.80000000E-01
4.21944440E+00	-4.38038480E-01
4.22222220E+00	-4.33038480E-01
4.22500000E+00	-4.65000000E-01
4.22777780E+00	-5.11961520E-01
4.23055560E+00	-5.31961520E-01
4.23333330E+00	-4.85000000E-01
4.23611110E+00	-4.43038480E-01
4.23888890E+00	-4.38038480E-01
4.24166670E+00	-4.80000000E-01
4.24444440E+00	-5.31961520E-01
4.24722220E+00	-5.26961520E-01
4.25000000E+00	-4.80000000E-01
4.25277780E+00	-4.38038480E-01
4.25555560E+00	-4.23038480E-01
4.25833330E+00	-4.60000000E-01
4.26111110E+00	-5.16961520E-01
4.26388890E+00	-5.11961520E-01
4.26666670E+00	-4.70000000E-01
4.26944440E+00	-4.33038480E-01
4.27222220E+00	-4.33038480E-01
4.27500000E+00	-4.80000000E-01
4.27777780E+00	-5.36961520E-01
4.28055560E+00	-5.41961520E-01
4.28333330E+00	-4.90000000E-01
4.28611110E+00	-4.48038480E-01
4.28888890E+00	-4.33038480E-01
4.29166670E+00	-4.90000000E-01
4.29444440E+00	-5.51961520E-01
4.29722220E+00	-5.46961520E-01
4.30000000E+00	-5.10000000E-01
4.30277780E+00	-4.58038480E-01
4.30555560E+00	-4.58038480E-01
4.30833330E+00	-5.10000000E-01
4.31111110E+00	-5.56961520E-01
4.31388890E+00	-5.61961520E-01
4.31666670E+00	-5.05000000E-01
4.31944440E+00	-4.68038480E-01
4.32222220E+00	-4.73038480E-01
4.32500000E+00	-5.15000000E-01
4.32777780E+00	-5.61961520E-01
4.33055560E+00	-5.76961520E-01
4.33333330E+00	-5.20000000E-01
4.33611110E+00	-4.68038480E-01
4.33888890E+00	-4.73038480E-01
4.34166670E+00	-5.00000000E-01
4.34444440E+00	-5.31961520E-01
4.34722220E+00	-5.26961520E-01
4.35000000E+00	-4.70000000E-01
4.35277780E+00	-4.08038480E-01
4.35555560E+00	-3.88038480E-01
4.35833330E+00	-4.30000000E-01
4.36111110E+00	-4.71961520E-01
4.36388890E+00	-4.71961520E-01
4.36666670E+00	-4.20000000E-01
4.36944440E+00	-3.63038480E-01
4.37222220E+00	-3.58038480E-01
4.37500000E+00	-3.95000000E-01
4.37777780E+00	-4.41961520E-01
4.38055560E+00	-4.36961520E-01
4.38333330E+00	-3.90000000E-01
4.38611110E+00	-3.48038480E-01
4.38888890E+00	-3.43038480E-01
4.39166670E+00	-3.75000000E-01
4.39444440E+00	-4.26961520E-01
4.39722220E+00	-4.31961520E-01
4.40000000E+00	-3.80000000E-01
4.40277780E+00	-3.43038480E-01
4.40555560E+00	-3.38038480E-01
4.40833330E+00	-3.75000000E-01
4.41111110E+00	-4.21961520E-01
4.41388890E+00	-4.21961520E-01
4.41666670E+00	-3.75000000E-01
4.41944440E+00	-3.38038480E-01
4.42222220E+00	-3.38038480E-01
4.42500000E+00	-3.90000000E-01
4.42777780E+00	-4.46961520E-01
4.43055560E+00	-4.36961520E-01
4.43333330E+00	-3.90000000E-01
4.43611110E+00	-3.48038480E-01
4.43888890E+00	-3.43038480E-01
4.44166670E+00	-3.85000000E-01
4.44444440E+00	-4.26961520E-01
4.44722220E+00	-4.31961520E-01
4.45000000E+00	-3.95000000E-01
4.45277780E+00	-3.48038480E-01
4.45555560E+00	-3.38038480E-01
4.45833330E+00	-3.85000000E-01
4.46111110E+00	-4.41961520E-01
4.46388890E+00	-4.41961520E-01
4.46666670E+00	-4.10000000E-01
4.46944440E+00	-3.68038480E-01
4.47222220E+00	-3.53038480E-01
4.47500000E+00	-3.95000000E-01
4.47777780E+00	-4.36961520E-01
4.48055560E+00	-4.41961520E-01
4.48333330E+00	-4.00000000E-01
4.48611110E+00	-3.53038480E-01
4.48888890E+00	-3.48038480E-01
4.49166670E+00	-4.00000000E-01
4.49444440E+00	-4.36961520E-01
4.49722220E+00	-4.36961520E-01
4.50000000E+00	-4.05000000E-01
4.50277780E+00	-3.58038480E-01
4.50555560E+00	-3.53038480E-01
4.50833330E+00	-4.05000000E-01
4.51111110E+00	-4.46961520E-01
4.51388890E+00	-4.61961520E-01
4.51666670E+00	-4.10000000E-01
4.51944440E+00	-3.78038480E-01
4.52222220E+00	-3.68038480E-01
4.52500000E+00	-4.15000000E-01
4.52777780E+00	-4.66961520E-01
4.53055560E+00	-4.56961520E-01
4.53333330E+00	-4.20000000E-01
4.53611110E+00	-3.78038480E-01
4.53888890E+00	-3.73038480E-01
4.54166670E+00	-4.05000000E-01
4.54444440E+00	-4.61961520E-01
4.54722220E+00	-4.51961520E-01
4.55000000E+00	-3.90000000E-01
4.55277780E+00	-3.43038480E-01
4.55555560E+00	-3.28038480E-01
4.55833330E+00	-3.60000000E-01
4.56111110E+00	-4.06961520E-01
4.56388890E+00	-3.91961520E-01
4.56666670E+00	-3.50000000E-01
4.56944440E+00	-2.98038480E-01
4.57222220E+00	-2.78038480E-01
4.57500000E+00	-3.35000000E-01
4.57777780E+00	-3.71961520E-01
4.58055560E+00	-3.61961520E-01
4.58333330E+00	-3.10000000E-01
4.58611110E+00	-2.68038480E-01
4.58888890E+00	-2.58038480E-01
4.59166670E+00	-2.95000000E-01
4.59444440E+00	-3.41961520E-01
4.59722220E+00	-3.41961520E-01
4.60000000E+00	-2.95000000E-01
4.60277780E+00	-2.58038480E-01
4.60555560E+00	-2.63038480E-01
4.60833330E+00	-3.10000000E-01
4.61111110E+00	-3.51961520E-01
4.61388890E+00	-3.51961520E-01
4.61666670E+00	-3.10000000E-01
4.61944440E+00	-2.63038480E-01
4.62222220E+00	-2.53038480E-01
4.62500000E+00	-2.80000000E-01
4.62777780E+00	-3.31961520E-01
4.63055560E+00	-3.11961520E-01
4.63333330E+00	-2.60000000E-01
4.63611110E+00	-2.08038480E-01
4.63888890E+00	-2.33038480E-01
4.64166670E+00	-2.85000000E-01
4.64444440E+00	-3.66961520E-01
4.64722220E+00	-3.76961520E-01
4.65000000E+00	-3.45000000E-01
4.65277780E+00	-3.13038480E-01
4.65555560E+00	-3.18038480E-01
4.65833330E+00	-3.80000000E-01
4.66111110E+00	-4.36961520E-01
4.66388890E+00	-4.46961520E-01
4.66666670E+00	-4.05000000E-01
4.66944440E+00	-3.73038480E-01
4.67222220E+00	-3.63038480E-01
4.67500000E+00	-4.15000000E-01
4.67777780E+00	-4.66961520E-01
4.68055560E+00	-4.71961520E-01
4.68333330E+00	-4.30000000E-01
4.68611110E+00	-3.88038480E-01
4.68888890E+00	-3.88038480E-01
4.69166670E+00	-4.20000000E-01
4.69444440E+00	-4.91961520E-01
4.69722220E+00	-4.86961520E-01
4.70000000E+00	-4.35000000E-01
4.70277780E+00	-4.03038480E-01
4.70555560E+00	-3.93038480E-01
4.70833330E+00	-4.45000000E-01
4.71111110E+00	-4.76961520E-01
4.71388890E+00	-4.81961520E-01
4.71666670E+00	-4.30000000E-01
4.71944440E+00	-3.88038480E-01
4.72222220E+00	-3.83038480E-01
4.72500000E+00	-4.35000000E-01
4.72777780E+00	-5.01961520E-01
4.73055560E+00	-5.36961520E-01
4.73333330E+00	-5.20000000E-01
4.73611110E+00	-4.98038480E-01
4.73888890E+00	-5.33038480E-01
4.74166670E+00	-6.10000000E-01
4.74444440E+00	-6.36961520E-01
4.74722220E+00	-5.56961520E-01
4.75000000E+00	-3.85000000E-01
4.75277780E+00	-1.83038480E-01
4.75555560E+00	1.69615240E-02
4.75833330E+00	2.30000000E-01
4.76111110E+00	4.53038480E-01
4.76388890E+00	6.63038480E-01
4.76666670E+00	7.85000000E-01
4.76944440E+00	7.21961520E-01
4.77222220E+00	4.16961520E-01
4.77500000E+00	-3.00000000E-02
4.77777780E+00	-3.96961520E-01
4.78055560E+00	-5.66961520E-01
4.78333330E+00	-5.85000000E-01
4.78611110E+00	-5.08038480E-01
4.78888890E+00	-4.68038480E-01
4.79166670E+00	-4.75000000E-01
4.79444440E+00	-5.06961520E-01
4.79722220E+00	-5.16961520E-01
4.80000000E+00	-4.65000000E-01
4.80277780E+00	-4.18038480E-01
4.80555560E+00	-4.18038480E-01
4.80833330E+00	-4.60000000E-01
4.81111110E+00	-5.11961520E-01
4.81388890E+00	-5.16961520E-01
4.81666670E+00	-4.80000000E-01
4.81944440E+00	-4.33038480E-01
4.82222220E+00	-4.18038480E-01
4.82500000E+00	-4.65000000E-01
4.82777780E+00	-5.11961520E-01
4.83055560E+00	-5.16961520E-01
4.83333330E+00	-4.65000000E-01
4.83611110E+00	-4.18038480E-01
4.83888890E+00	-4.18038480E-01
4.84166670E+00	-4.65000000E-01
4.84444440E+00	-5.16961520E-01
4.84722220E+00	-5.11961520E-01
4.85000000E+00	-4.70000000E-01
4.85277780E+00	-4.28038480E-01
4.85555560E+00	-4.13038480E-01
4.85833330E+00	-4.55000000E-01
4.86111110E+00	-4.91961520E-01
4.86388890E+00	-4.96961520E-01
4.86666670E+00	-4.60000000E-01
4.86944440E+00	-4.13038480E-01
4.87222220E+00	-4.08038480E-01
4.87500000E+00	-4.50000000E-01
4.87777780E+00	-5.01961520E-01
4.88055560E+00	-5.01961520E-01
4.88333330E+00	-4.55000000E-01
4.88611110E+00	-4.18038480E-01
4.88888890E+00	-4.18038480E-01
4.89166670E+00	-4.60000000E-01
4.89444440E+00	-5.11961520E-01
4.89722220E+00	-5.01961520E-01
4.90000000E+00	-4.55000000E-01
4.90277780E+00	-4.13038480E-01
4.90555560E+00	-4.03038480E-01
4.90833330E+00	-4.45000000E-01
4.91111110E+00	-4.96961520E-01
4.91388890E+00	-4.96961520E-01
4.91666670E+00	-4.45000000E-01
4.91944440E+00	-4.03038480E-01
4.92222220E+00	-3.93038480E-01
4.92500000E+00	-4.45000000E-01
4.92777780E+00	-4.91961520E-01
4.93055560E+00	-4.96961520E-01
4.93333330E+00	-4.60000000E-01
4.93611110E+00	-4.08038480E-01
4.93888890E+00	-3.98038480E-01
4.94166670E+00	-4.40000000E-01
4.94444440E+00	-4.91961520E-01
4.94722220E+00	-4.96961520E-01
4.95000000E+00	-4.40000000E-01
4.95277780E+00	-3.93038480E-01
4.95555560E+00	-3.83038480E-01
4.95833330E+00	-4.25000000E-01
4.96111110E+00	-4.86961520E-01
4.96388890E+00	-4.86961520E-01
4.96666670E+00	-4.40000000E-01
4.96944440E+00	-3.98038480E-01
4.97222220E+00	-3.93038480E-01
4.97500000E+00	-4.40000000E-01
4.97777780E+00	-4.91961520E-01
4.98055560E+00	-5.06961520E-01
4.98333330E+00	-4.65000000E-01
4.98611110E+00	-4.28038480E-01
4.98888890E+00	-4.18038480E-01
4.99166670E+00	-4.65000000E-01
4.99444440E+00	-5.21961520E-01
4.99722220E+00	-5.31961520E-01
5.00000000E+00	-4.85000000E-01
5.00277780E+00	-4.33038480E-01
5.00555560E+00	-4.38038480E-01
5.00833330E+00	-4.70000000E-01
5.01111110E+00	-5.16961520E-01
5.01388890E+00	-5.16961520E-01
5.01666670E+00	-4.70000000E-01
5.01944440E+00	-4.23038480E-01
5.02222220E+00	-4.08038480E-01
5.02500000E+00	-4.65000000E-01
5.02777780E+00	-5.01961520E-01
5.03055560E+00	-5.06961520E-01
5.03333330E+00	-4.50000000E-01
5.03611110E+00	-3.93038480E-01
5.03888890E+00	-3.83038480E-01
5.04166670E+00	-4.10000000E-01
5.04444440E+00	-4.46961520E-01
5.04722220E+00	-4.31961520E-01
5.05000000E+00	-3.80000000E-01
5.05277780E+00	-3.13038480E-01
5.05555560E+00	-2.93038480E-01
5.05833330E+00	-3.35000000E-01
5.06111110E+00	-3.66961520E-01
5.06388890E+00	-3.71961520E-01
5.06666670E+00	-3.15000000E-01
5.06944440E+00	-2.78038480E-01
5.07222220E+00	-2.63038480E-01
5.07500000E+00	-3.00000000E-01
5.07777780E+00	-3.46961520E-01
5.08055560E+00	-3.41961520E-01
5.08333330E+00	-2.95000000E-01
5.08611110E+00	-2.53038480E-01
5.08888890E+00	-2.53038480E-01
5.09166670E+00	-3.00000000E-01
5.09444440E+00	-3.31961520E-01
5.09722220E+00	-3.36961520E-01
5.10000000E+00	-2.90000000E-01
5.10277780E+00	-2.43038480E-01
5.10555560E+00	-2.33038480E-01
5.10833330E+00	-2.75000000E-01
5.11111110E+00	-3.16961520E-01
5.11388890E+00	-3.26961520E-01
5.11666670E+00	-2.80000000E-01
5.11944440E+00	-2.43038480E-01
5.12222220E+00	-2.28038480E-01
5.12500000E+00	-2.85000000E-01
5.12777780E+00	-3.41961520E-01
5.13055560E+00	-3.41961520E-01
5.13333330E+00	-2.95000000E-01
5.13611110E+00	-2.53038480E-01
5.13888890E+00	-2.38038480E-01
5.14166670E+00	-2.85000000E-01
5.14444440E+00	-3.36961520E-01
5.14722220E+00	-3.36961520E-01
5.15000000E+00	-2.95000000E-01
5.15277780E+00	-2.53038480E-01
5.15555560E+00	-2.43038480E-01
5.15833330E+00	-2.85000000E-01
5.16111110E+00	-3.31961520E-01
5.16388890E+00	-3.31961520E-01
5.16666670E+00	-3.10000000E-01
5.16944440E+00	-2.58038480E-01
5.17222220E+00	-2.48038480E-01
5.17500000E+00	-2.90000000E-01
5.17777780E+00	-3.41961520E-01
5.18055560E+00	-3.51961520E-01
5.18333330E+00	-3.10000000E-01
5.18611110E+00	-2.68038480E-01
5.18888890E+00	-2.58038480E-01
5.19166670E+00	-3.15000000E-01
5.19444440E+00	-3.61961520E-01
5.19722220E+00	-3.61961520E-01
5.20000000E+00	-3.20000000E-01
5.20277780E+00	-2.78038480E-01
5.20555560E+00	-2.73038480E-01
5.20833330E+00	-3.20000000E-01
5.21111110E+00	-3.61961520E-01
5.21388890E+00	-3.76961520E-01
5.21666670E+00	-3.20000000E-01
5.21944440E+00	-2.78038480E-01
5.22222220E+00	-2.68038480E-01
5.22500000E+00	-3.20000000E-01
5.22777780E+00	-3.56961520E-01
5.23055560E+00	-3.66961520E-01
5.23333330E+00	-3.05000000E-01
5.23611110E+00	-2.63038480E-01
5.23888890E+00	-2.63038480E-01
5.24166670E+00	-2.95000000E-01
5.24444440E+00	-3.21961520E-01
5.24722220E+00	-3.21961520E-01
5.25000000E+00	-2.60000000E-01
5.25277780E+00	-2.13038480E-01
5.25555560E+00	-2.08038480E-01
5.25833330E+00	-2.50000000E-01
5.26111110E+00	-2.86961520E-01
5.26388890E+00	-2.86961520E-01
5.26666670E+00	-2.40000000E-01
5.26944440E+00	-1.93038480E-01
5.27222220E+00	-1.88038480E-01
5.27500000E+00	-2.15000000E-01
5.27777780E+00	-2.51961520E-01
5.28055560E+00	-2.46961520E-01
5.28333330E+00	-2.00000000E-01
5.28611110E+00	-1.58038480E-01
5.28888890E+00	-1.43038480E-01
5.29166670E+00	-1.95000000E-01
5.29444440E+00	-2.51961520E-01
5.29722220E+00	-2.61961520E-01
5.30000000E+00	-2.20000000E-01
5.30277780E+00	-1.58038480E-01
5.30555560E+00	-1.48038480E-01
5.30833330E+00	-1.95000000E-01
5.31111110E+00	-2.41961520E-01
5.31388890E+00	-2.26961520E-01
5.31666670E+00	-1.60000000E-01
5.31944440E+00	-1.13038480E-01
5.32222220E+00	-1.43038480E-01
5.32500000E+00	-2.25000000E-01
5.32777780E+00	-2.81961520E-01
5.33055560E+00	-3.06961520E-01
5.33333330E+00	-2.75000000E-01
5.33611110E+00	-2.33038480E-01
5.33888890E+00	-2.48038480E-01
5.34166670E+00	-3.10000000E-01
5.34444440E+00	-3.66961520E-01
5.34722220E+00	-3.71961520E-01
5.35000000E+00	-3.30000000E-01
5.35277780E+00	-2.93038480E-01
5.35555560E+00	-2.78038480E-01
5.35833330E+00	-3.25000000E-01
5.36111110E+00	-3.71961520E-01
5.36388890E+00	-3.76961520E-01
5.36666670E+00	-3.45000000E-01
5.36944440E+00	-2.98038480E-01
5.37222220E+00	-2.88038480E-01
5.37500000E+00	-3.40000000E-01
5.37777780E+00	-3.81961520E-01
5.38055560E+00	-3.86961520E-01
5.38333330E+00	-3.35000000E-01
5.38611110E+00	-2.93038480E-01
5.38888890E+00	-2.93038480E-01
5.39166670E+00	-3.45000000E-01
5.39444440E+00	-3.81961520E-01
5.39722220E+00	-3.86961520E-01
5.40000000E+00	-3.45000000E-01
5.40277780E+00	-3.03038480E-01
5.40555560E+00	-2.93038480E-01
5.40833330E+00	-3.25000000E-01
5.41111110E+00	-3.81961520E-01
5.41388890E+00	-3.86961520E-01
5.41666670E+00	-3.40000000E-01
5.41944440E+00	-3.08038480E-01
5.42222220E+00	-3.33038480E-01
5.42500000E+00	-4.20000000E-01
5.42777780E+00	-4.76961520E-01
5.43055560E+00	-5.11961520E-01
5.43333330E+00	-5.05000000E-01
5.43611110E+00	-5.03038480E-01
5.43888890E+00	-5.08038480E-01
5.44166670E+00	-5.00000000E-01
5.44444440E+00	-4.46961520E-01
5.44722220E+00	-3.21961520E-01
5.45000000E+00	-1.45000000E-01
5.45277780E+00	8.69615240E-02
5.45555560E+00	3.51961520E-01
5.45833330E+00	5.60000000E-01
5.46111110E+00	6.83038480E-01
5.46388890E+00	7.43038480E-01
5.46666670E+00	7.25000000E-01
5.46944440E+00	5.41961520E-01
5.47222220E+00	2.06961520E-01
5.47500000E+00	-1.60000000E-01
5.47777780E+00	-4.51961520E-01
5.48055560E+00	-5.61961520E-01
5.48333330E+00	-5.15000000E-01
5.48611110E+00	-4.08038480E-01
5.48888890E+00	-3.53038480E-01
5.49166670E+00	-3.90000000E-01
5.49444440E+00	-4.26961520E-01
5.49722220E+00	-4.31961520E-01
5.50000000E+00	-3.90000000E-01
5.50277780E+00	-3.43038480E-01
5.50555560E+00	-3.38038480E-01
5.50833330E+00	-3.80000000E-01
5.51111110E+00	-4.36961520E-01
5.51388890E+00	-4.36961520E-01
5.51666670E+00	-3.95000000E-01
5.51944440E+00	-3.48038480E-01
5.52222220E+00	-3.43038480E-01
5.52500000E+00	-3.85000000E-01
5.52777780E+00	-4.41961520E-01
5.53055560E+00	-4.36961520E-01
5.53333330E+00	-3.90000000E-01
5.53611110E+00	-3.53038480E-01
5.53888890E+00	-3.38038480E-01
5.54166670E+00	-3.85000000E-01
5.54444440E+00	-4.31961520E-01
5.54722220E+00	-4.31961520E-01
5.55000000E+00	-3.80000000E-01
5.55277780E+00	-3.33038480E-01
5.55555560E+00	-3.23038480E-01
5.55833330E+00	-3.80000000E-01
5.56111110E+00	-4.16961520E-01
5.56388890E+00	-4.26961520E-01
5.56666670E+00	-3.80000000E-01
5.56944440E+00	-3.33038480E-01
5.57222220E+00	-3.38038480E-01
5.57500000E+00	-3.80000000E-01
5.57777780E+00	-4.21961520E-01
5.58055560E+00	-4.41961520E-01
5.58333330E+00	-3.90000000E-01
5.58611110E+00	-3.53038480E-01
5.58888890E+00	-3.38038480E-01
5.59166670E+00	-3.90000000E-01
5.59444440E+00	-4.41961520E-01
5.59722220E+00	-4.31961520E-01
5.60000000E+00	-3.90000000E-01
5.60277780E+00	-3.43038480E-01
5.60555560E+00	-3.48038480E-01
5.60833330E+00	-3.90000000E-01
5.61111110E+00	-4.36961520E-01
5.61388890E+00	-4.36961520E-01
5.61666670E+00	-3.95000000E-01
5.61944440E+00	-3.48038480E-01
5.62222220E+00	-3.43038480E-01
5.62500000E+00	-3.80000000E-01
5.62777780E+00	-4.36961520E-01
5.63055560E+00	-4.26961520E-01
5.63333330E+00	-3.75000000E-01
5.63611110E+00	-3.38038480E-01
5.63888890E+00	-3.28038480E-01
5.64166670E+00	-3.65000000E-01
5.64444440E+00	-4.11961520E-01
5.64722220E+00	-4.21961520E-01
5.65000000E+00	-3.80000000E-01
5.65277780E+00	-3.28038480E-01
5.65555560E+00	-3.23038480E-01
5.65833330E+00	-3.75000000E-01
5.66111110E+00	-4.16961520E-01
5.66388890E+00	-4.26961520E-01
5.66666670E+00	-3.80000000E-01
5.66944440E+00	-3.43038480E-01
5.67222220E+00	-3.33038480E-01
5.67500000E+00	-3.75000000E-01
5.67777780E+00	-4.31961520E-01
5.68055560E+00	-4.31961520E-01
5.68333330E+00	-3.85000000E-01
5.68611110E+00	-3.43038480E-01
5.68888890E+00	-3.28038480E-01
5.69166670E+00	-3.80000000E-01
5.69444440E+00	-4.36961520E-01
5.69722220E+00	-4.31961520E-01
5.70000000E+00	-4.00000000E-01
5.70277780E+00	-3.48038480E-01
5.70555560E+00	-3.43038480E-01
5.70833330E+00	-3.95000000E-01
5.71111110E+00	-4.31961520E-01
5.71388890E+00	-4.41961520E-01
5.71666670E+00	-3.85000000E-01
5.71944440E+00	-3.53038480E-01
5.72222220E+00	-3.38038480E-01
5.72500000E+00	-3.90000000E-01
5.72777780E+00	-4.41961520E-01
5.73055560E+00	-4.31961520E-01
5.73333330E+00	-3.95000000E-01
5.73611110E+00	-3.43038480E-01
5.73888890E+00	-3.33038480E-01
5.74166670E+00	-3.80000000E-01
5.74444440E+00	-4.16961520E-01
5.74722220E+00	-4.11961520E-01
5.75000000E+00	-3.50000000E-01
5.75277780E+00	-2.88038480E-01
5.75555560E+00	-2.88038480E-01
5.75833330E+00	-3.25000000E-01
5.76111110E+00	-3.71961520E-01
5.76388890E+00	-3.56961520E-01
5.76666670E+00	-3.10000000E-01
5.76944440E+00	-2.68038480E-01
5.77222220E+00	-2.43038480E-01
5.77500000E+00	-2.90000000E-01
5.77777780E+00	-3.21961520E-01
5.78055560E+00	-3.26961520E-01
5.78333330E+00	-2.80000000E-01
5.78611110E+00	-2.38038480E-01
5.78888890E+00	-2.23038480E-01
5.79166670E+00	-2.75000000E-01
5.79444440E+00	-3.16961520E-01
5.79722220E+00	-3.21961520E-01
5.80000000E+00	-2.75000000E-01
5.80277780E+00	-2.33038480E-01
5.80555560E+00	-2.38038480E-01
5.80833330E+00	-2.75000000E-01
5.81111110E+00	-3.21961520E-01
5.81388890E+00	-3.26961520E-01
5.81666670E+00	-2.85000000E-01
5.81944440E+00	-2.33038480E-01
5.82222220E+00	-2.33038480E-01
5.82500000E+00	-2.80000000E-01
5.82777780E+00	-3.26961520E-01
5.83055560E+00	-3.36961520E-01
5.83333330E+00	-2.90000000E-01
5.83611110E+00	-2.43038480E-01
5.83888890E+00	-2.43038480E-01
5.84166670E+00	-2.85000000E-01
5.84444440E+00	-3.31961520E-01
5.84722220E+00	-3.36961520E-01
5.85000000E+00	-2.90000000E-01
5.85277780E+00	-2.48038480E-01
5.85555560E+00	-2.48038480E-01
5.85833330E+00	-2.85000000E-01
5.86111110E+00	-3.31961520E-01
5.86388890E+00	-3.36961520E-01
5.86666670E+00	-2.95000000E-01
5.86944440E+00	-2.48038480E-01
5.87222220E+00	-2.63038480E-01
5.87500000E+00	-2.90000000E-01
5.87777780E+00	-3.31961520E-01
5.88055560E+00	-3.31961520E-01
5.88333330E+00	-2.95000000E-01
5.88611110E+00	-2.58038480E-01
5.88888890E+00	-2.53038480E-01
5.89166670E+00	-3.00000000E-01
5.89444440E+00	-3.51961520E-01
5.89722220E+00	-3.51961520E-01
5.90000000E+00	-3.10000000E-01
5.90277780E+00	-2.68038480E-01
5.90555560E+00	-2.58038480E-01
5.90833330E+00	-3.05000000E-01
5.91111110E+00	-3.61961520E-01
5.91388890E+00	-3.61961520E-01
5.91666670E+00	-3.15000000E-01
5.91944440E+00	-2.73038480E-01
5.92222220E+00	-2.58038480E-01
5.92500000E+00	-3.05000000E-01
5.92777780E+00	-3.56961520E-01
5.93055560E+00	-3.61961520E-01
5.93333330E+00	-3.40000000E-01
5.93611110E+00	-2.88038480E-01
5.93888890E+00	-2.88038480E-01
5.94166670E+00	-3.40000000E-01
5.94444440E+00	-3.51961520E-01
5.94722220E+00	-3.56961520E-01
5.95000000E+00	-2.95000000E-01
5.95277780E+00	-2.53038480E-01
5.95555560E+00	-2.48038480E-01
5.95833330E+00	-2.70000000E-01
5.96111110E+00	-3.21961520E-01
5.96388890E+00	-3.41961520E-01
5.96666670E+00	-2.75000000E-01
5.96944440E+00	-2.23038480E-01
5.97222220E+00	-2.13038480E-01
5.97500000E+00	-2.60000000E-01
5.97777780E+00	-3.01961520E-01
5.98055560E+00	-2.96961520E-01
5.98333330E+00	-2.50000000E-01
5.98611110E+00	-1.98038480E-01
5.98888890E+00	-1.98038480E-01
5.99166670E+00	-2.30000000E-01
5.99444440E+00	-2.61961520E-01
5.99722220E+00	-2.61961520E-01
6.00000000E+00	-2.10000000E-01
6.00277780E+00	-1.43038480E-01
6.00555560E+00	-1.48038480E-01
6.00833330E+00	-1.90000000E-01
6.01111110E+00	-2.46961520E-01
6.01388890E+00	-2.46961520E-01
6.01666670E+00	-2.15000000E-01
6.01944440E+00	-1.63038480E-01
6.02222220E+00	-1.58038480E-01
6.02500000E+00	-2.05000000E-01
6.02777780E+00	-2.61961520E-01
6.03055560E+00	-2.56961520E-01
6.03333330E+00	-2.10000000E-01
6.03611110E+00	-1.38038480E-01
6.03888890E+00	-1.23038480E-01
6.04166670E+00	-1.75000000E-01
6.04444440E+00	-2.41961520E-01
6.04722220E+00	-2.81961520E-01
6.05000000E+00	-2.60000000E-01
6.05277780E+00	-2.13038480E-01
6.05555560E+00	-2.28038480E-01
6.05833330E+00	-2.85000000E-01
6.06111110E+00	-3.41961520E-01
6.06388890E+00	-3.66961520E-01
6.06666670E+00	-3.35000000E-01
6.06944440E+00	-2.93038480E-01
6.07222220E+00	-2.88038480E-01
6.07500000E+00	-3.30000000E-01
6.07777780E+00	-3.76961520E-01
6.08055560E+00	-3.76961520E-01
6.08333330E+00	-3.40000000E-01
6.08611110E+00	-2.98038480E-01
6.08888890E+00	-2.93038480E-01
6.09166670E+00	-3.30000000E-01
6.09444440E+00	-3.81961520E-01
6.09722220E+00	-3.86961520E-01
6.10000000E+00	-3.40000000E-01
6.10277780E+00	-3.03038480E-01
6.10555560E+00	-2.98038480E-01
6.10833330E+00	-3.45000000E-01
6.11111110E+00	-3.86961520E-01
6.11388890E+00	-3.86961520E-01
6.11666670E+00	-3.40000000E-01
6.11944440E+00	-3.08038480E-01
6.12222220E+00	-2.98038480E-01
6.12500000E+00	-3.40000000E-01
6.12777780E+00	-3.96961520E-01
6.13055560E+00	-3.96961520E-01
6.13333330E+00	-3.60000000E-01
6.13611110E+00	-3.53038480E-01
6.13888890E+00	-3.93038480E-01
6.14166670E+00	-4.45000000E-01
6.14444440E+00	-4.91961520E-01
6.14722220E+00	-4.91961520E-01
6.15000000E+00	-4.95000000E-01
6.15277780E+00	-5.08038480E-01
6.15555560E+00	-5.43038480E-01
6.15833330E+00	-5.90000000E-01
6.16111110E+00	-5.96961520E-01
6.16388890E+00	-5.16961520E-01
6.16666670E+00	-3.75000000E-01
6.16944440E+00	-2.08038480E-01
6.17222220E+00	-5.30384760E-02
6.17500000E+00	1.30000000E-01
6.17777780E+00	3.58038480E-01
6.18055560E+00	5.88038480E-01
6.18333330E+00	7.50000000E-01
6.18611110E+00	7.71961520E-01
6.18888890E+00	5.81961520E-01
6.19166670E+00	2.15000000E-01
6.19444440E+00	-1.96961520E-01
6.19722220E+00	-4.66961520E-01
6.20000000E+00	-5.30000000E-01
6.20277780E+00	-4.73038480E-01
6.20555560E+00	-4.18038480E-01
6.20833330E+00	-4.10000000E-01
6.21111110E+00	-4.36961520E-01
6.21388890E+00	-4.36961520E-01
6.21666670E+00	-4.00000000E-01
6.21944440E+00	-3.53038480E-01
6.22222220E+00	-3.48038480E-01
6.22500000E+00	-3.85000000E-01
6.22777780E+00	-4.36961520E-01
6.23055560E+00	-4.41961520E-01
6.23333330E+00	-3.95000000E-01
6.23611110E+00	-3.68038480E-01
6.23888890E+00	-3.53038480E-01
6.24166670E+00	-3.90000000E-01
6.24444440E+00	-4.41961520E-01
6.24722220E+00	-4.36961520E-01
6.25000000E+00	-4.00000000E-01
6.25277780E+00	-3.43038480E-01
6.25555560E+00	-3.53038480E-01
6.25833330E+00	-3.90000000E-01
6.26111110E+00	-4.21961520E-01
6.26388890E+00	-4.21961520E-01
6.26666670E+00	-3.75000000E-01
6.26944440E+00	-3.43038480E-01
6.27222220E+00	-3.43038480E-01
6.27500000E+00	-3.75000000E-01
6.27777780E+00	-4.16961520E-01
6.28055560E+00	-4.31961520E-01
6.28333330E+00	-3.75000000E-01
6.28611110E+00	-3.38038480E-01
6.28888890E+00	-3.38038480E-01
6.29166670E+00	-3.85000000E-01
6.29444440E+00	-4.31961520E-01
6.29722220E+00	-4.41961520E-01
6.30000000E+00	-3.95000000E-01
6.30277780E+00	-3.48038480E-01
6.30555560E+00	-3.48038480E-01
6.30833330E+00	-3.80000000E-01
6.31111110E+00	-4.21961520E-01
6.31388890E+00	-4.21961520E-01
6.31666670E+00	-3.75000000E-01
6.31944440E+00	-3.28038480E-01
6.32222220E+00	-3.28038480E-01
6.32500000E+00	-3.70000000E-01
6.32777780E+00	-4.16961520E-01
6.33055560E+00	-4.11961520E-01
6.33333330E+00	-3.65000000E-01
6.33611110E+00	-3.23038480E-01
6.33888890E+00	-3.13038480E-01
6.34166670E+00	-3.60000000E-01
6.34444440E+00	-4.11961520E-01
6.34722220E+00	-4.21961520E-01
6.35000000E+00	-3.70000000E-01
6.35277780E+00	-3.38038480E-01
6.35555560E+00	-3.33038480E-01
6.35833330E+00	-3.80000000E-01
6.36111110E+00	-4.26961520E-01
6.36388890E+00	-4.31961520E-01
6.36666670E+00	-3.70000000E-01
6.36944440E+00	-3.38038480E-01
6.37222220E+00	-3.28038480E-01
6.37500000E+00	-3.75000000E-01
6.37777780E+00	-4.11961520E-01
6.38055560E+00	-4.21961520E-01
6.38333330E+00	-3.75000000E-01
6.38611110E+00	-3.38038480E-01
6.38888890E+00	-3.33038480E-01
6.39166670E+00	-3.75000000E-01
6.39444440E+00	-4.21961520E-01
6.39722220E+00	-4.31961520E-01
6.40000000E+00	-3.85000000E-01
6.40277780E+00	-3.48038480E-01
6.40555560E+00	-3.28038480E-01
6.40833330E+00	-3.80000000E-01
6.41111110E+00	-4.11961520E-01
6.41388890E+00	-4.21961520E-01
6.41666670E+00	-3.85000000E-01
6.41944440E+00	-3.48038480E-01
6.42222220E+00	-3.48038480E-01
6.42500000E+00	-3.95000000E-01
6.42777780E+00	-4.46961520E-01
6.43055560E+00	-4.46961520E-01
6.43333330E+00	-4.00000000E-01
6.43611110E+00	-3.53038480E-01
6.43888890E+00	-3.53038480E-01
6.44166670E+00	-3.95000000E-01
6.44444440E+00	-4.46961520E-01
6.44722220E+00	-4.36961520E-01
6.45000000E+00	-4.00000000E-01
6.45277780E+00	-3.48038480E-01
6.45555560E+00	-3.43038480E-01
6.45833330E+00	-3.85000000E-01
6.46111110E+00	-4.11961520E-01
6.46388890E+00	-4.26961520E-01
6.46666670E+00	-3.70000000E-01
6.46944440E+00	-3.28038480E-01
6.47222220E+00	-3.23038480E-01
6.47500000E+00	-3.50000000E-01
6.47777780E+00	-4.01961520E-01
6.48055560E+00	-3.86961520E-01
6.48333330E+00	-3.25000000E-01
6.48611110E+00	-2.73038480E-01
6.48888890E+00	-2.73038480E-01
6.49166670E+00	-2.95000000E-01
6.49444440E+00	-3.36961520E-01
6.49722220E+00	-3.31961520E-01
6.50000000E+00	-2.80000000E-01
6.50277780E+00	-2.43038480E-01
6.50555560E+00	-2.33038480E-01
6.50833330E+00	-2.85000000E-01
6.51111110E+00	-3.21961520E-01
6.51388890E+00	-3.26961520E-01
6.51666670E+00	-2.90000000E-01
6.51944440E+00	-2.43038480E-01
6.52222220E+00	-2.43038480E-01
6.52500000E+00	-2.85000000E-01
6.52777780E+00	-3.36961520E-01
6.53055560E+00	-3.31961520E-01
6.53333330E+00	-2.90000000E-01
6.53611110E+00	-2.43038480E-01
6.53888890E+00	-2.43038480E-01
6.54166670E+00	-3.00000000E-01
6.54444440E+00	-3.36961520E-01
6.54722220E+00	-3.36961520E-01
6.55000000E+00	-2.85000000E-01
6.55277780E+00	-2.43038480E-01
6.55555560E+00	-2.48038480E-01
6.55833330E+00	-2.95000000E-01
6.56111110E+00	-3.26961520E-01
6.56388890E+00	-3.41961520E-01
6.56666670E+00	-3.00000000E-01
6.56944440E+00	-2.58038480E-01
6.57222220E+00	-2.63038480E-01
6.57500000E+00	-2.90000000E-01
6.57777780E+00	-3.41961520E-01
6.58055560E+00	-3.36961520E-01
6.58333330E+00	-3.00000000E-01
6.58611110E+00	-2.53038480E-01
6.58888890E+00	-2.53038480E-01
6.59166670E+00	-3.05000000E-01
6.59444440E+00	-3.56961520E-01
6.59722220E+00	-3.56961520E-01
6.60000000E+00	-3.05000000E-01
6.60277780E+00	-2.78038480E-01
6.60555560E+00	-2.63038480E-01
6.60833330E+00	-3.15000000E-01
6.61111110E+00	-3.56961520E-01
6.61388890E+00	-3.61961520E-01
6.61666670E+00	-3.20000000E-01
6.61944440E+00	-2.83038480E-01
6.62222220E+00	-2.78038480E-01
6.62500000E+00	-3.25000000E-01
6.62777780E+00	-3.66961520E-01
6.63055560E+00	-3.66961520E-01
6.63333330E+00	-3.30000000E-01
6.63611110E+00	-2.93038480E-01
6.63888890E+00	-2.78038480E-01
6.64166670E+00	-3.15000000E-01
6.64444440E+00	-3.66961520E-01
6.64722220E+00	-3.76961520E-01
6.65000000E+00	-3.30000000E-01
6.65277780E+00	-2.93038480E-01
6.65555560E+00	-2.88038480E-01
6.65833330E+00	-3.25000000E-01
6.66111110E+00	-3.71961520E-01
6.66388890E+00	-3.76961520E-01
6.66666670E+00	-3.30000000E-01
6.66944440E+00	-2.93038480E-01
6.67222220E+00	-2.83038480E-01
6.67500000E+00	-3.15000000E-01
6.67777780E+00	-3.71961520E-01
6.68055560E+00	-3.81961520E-01
6.68333330E+00	-3.25000000E-01
6.68611110E+00	-2.83038480E-01
6.68888890E+00	-2.68038480E-01
6.69166670E+00	-3.15000000E-01
6.69444440E+00	-3.46961520E-01
6.69722220E+00	-3.51961520E-01
6.70000000E+00	-2.95000000E-01
6.70277780E+00	-2.58038480E-01
6.70555560E+00	-2.53038480E-01
6.70833330E+00	-2.80000000E-01
6.71111110E+00	-3.16961520E-01
6.71388890E+00	-3.21961520E-01
6.71666670E+00	-2.75000000E-01
6.71944440E+00	-2.28038480E-01
6.72222220E+00	-2.13038480E-01
6.72500000E+00	-2.50000000E-01
6.72777780E+00	-2.81961520E-01
6.73055560E+00	-2.81961520E-01
6.73333330E+00	-2.25000000E-01
6.73611110E+00	-1.73038480E-01
6.73888890E+00	-1.73038480E-01
6.74166670E+00	-2.25000000E-01
6.74444440E+00	-2.71961520E-01
6.74722220E+00	-2.76961520E-01
6.75000000E+00	-2.35000000E-01
6.75277780E+00	-1.88038480E-01
6.75555560E+00	-1.73038480E-01
6.75833330E+00	-2.10000000E-01
6.76111110E+00	-2.51961520E-01
6.76388890E+00	-2.46961520E-01
6.76666670E+00	-2.00000000E-01
6.76944440E+00	-1.68038480E-01
6.77222220E+00	-2.03038480E-01
6.77500000E+00	-2.70000000E-01
6.77777780E+00	-3.31961520E-01
6.78055560E+00	-3.51961520E-01
6.78333330E+00	-3.20000000E-01
6.78611110E+00	-2.83038480E-01
6.78888890E+00	-2.98038480E-01
6.79166670E+00	-3.50000000E-01
6.79444440E+00	-4.06961520E-01
6.79722220E+00	-4.21961520E-01
6.80000000E+00	-3.85000000E-01
6.80277780E+00	-3.28038480E-01
6.80555560E+00	-3.23038480E-01
6.80833330E+00	-3.70000000E-01
6.81111110E+00	-4.16961520E-01
6.81388890E+00	-4.16961520E-01
6.81666670E+00	-3.80000000E-01
6.81944440E+00	-3.43038480E-01
6.82222220E+00	-3.33038480E-01
6.82500000E+00	-3.65000000E-01
6.82777780E+00	-4.06961520E-01
6.83055560E+00	-4.16961520E-01
6.83333330E+00	-3.85000000E-01
6.83611110E+00	-3.33038480E-01
6.83888890E+00	-3.28038480E-01
6.84166670E+00	-3.75000000E-01
6.84444440E+00	-4.11961520E-01
6.84722220E+00	-4.16961520E-01
6.85000000E+00	-3.85000000E-01
6.85277780E+00	-3.53038480E-01
6.85555560E+00	-3.53038480E-01
6.85833330E+00	-4.25000000E-01
6.86111110E+00	-5.01961520E-01
6.86388890E+00	-5.31961520E-01
6.86666670E+00	-4.90000000E-01
6.86944440E+00	-4.38038480E-01
6.87222220E+00	-4.38038480E-01
6.87500000E+00	-5.00000000E-01
6.87777780E+00	-5.91961520E-01
6.88055560E+00	-6.51961520E-01
6.88333330E+00	-6.05000000E-01
6.88611110E+00	-5.18038480E-01
6.88888890E+00	-4.03038480E-01
6.89166670E+00	-3.20000000E-01
6.89444440E+00	-2.21961520E-01
6.89722220E+00	-3.19615240E-02
6.90000000E+00	2.75000000E-01
6.90277780E+00	5.91961520E-01
6.90555560E+00	8.06961520E-01
6.90833330E+00	8.25000000E-01
6.91111110E+00	6.93038480E-01
6.91388890E+00	3.93038480E-01
6.91666670E+00	4.00000000E-02
6.91944440E+00	-2.48038480E-01
6.92222220E+00	-4.38038480E-01
6.92500000E+00	-5.65000000E-01
6.92777780E+00	-5.86961520E-01
6.93055560E+00	-5.41961520E-01
6.93333330E+00	-4.60000000E-01
6.93611110E+00	-4.13038480E-01
6.93888890E+00	-3.98038480E-01
6.94166670E+00	-4.35000000E-01
6.94444440E+00	-4.86961520E-01
6.94722220E+00	-4.86961520E-01
6.95000000E+00	-4.40000000E-01
6.95277780E+00	-4.03038480E-01
6.95555560E+00	-3.98038480E-01
6.95833330E+00	-4.40000000E-01
6.96111110E+00	-4.76961520E-01
6.96388890E+00	-4.71961520E-01
6.96666670E+00	-4.35000000E-01
6.96944440E+00	-3.88038480E-01
6.97222220E+00	-3.78038480E-01
6.97500000E+00	-4.45000000E-01
6.97777780E+00	-4.81961520E-01
6.98055560E+00	-4.91961520E-01
6.98333330E+00	-4.40000000E-01
6.98611110E+00	-3.88038480E-01
6.98888890E+00	-3.88038480E-01
6.99166670E+00	-4.35000000E-01
6.99444440E+00	-4.81961520E-01
6.99722220E+00	-4.81961520E-01
7.00000000E+00	-4.30000000E-01
7.00277780E+00	-3.83038480E-01
7.00555560E+00	-3.83038480E-01
7.00833330E+00	-4.30000000E-01
7.01111110E+00	-4.86961520E-01
7.01388890E+00	-4.86961520E-01
7.01666670E+00	-4.55000000E-01
7.01944440E+00	-4.03038480E-01
7.02222220E+00	-4.08038480E-01
7.02500000E+00	-4.45000000E-01
7.02777780E+00	-4.86961520E-01
7.03055560E+00	-4.96961520E-01
7.03333330E+00	-4.35000000E-01
7.03611110E+00	-3.98038480E-01
7.03888890E+00	-4.03038480E-01
7.04166670E+00	-4.55000000E-01
7.04444440E+00	-4.86961520E-01
7.04722220E+00	-4.76961520E-01
7.05000000E+00	-4.30000000E-01
7.05277780E+00	-3.88038480E-01
7.05555560E+00	-3.93038480E-01
7.05833330E+00	-4.40000000E-01
7.06111110E+00	-4.81961520E-01
7.06388890E+00	-4.81961520E-01
7.06666670E+00	-4.25000000E-01
7.06944440E+00	-3.88038480E-01
7.07222220E+00	-3.83038480E-01
7.07500000E+00	-4.55000000E-01
7.07777780E+00	-4.76961520E-01
7.08055560E+00	-4.76961520E-01
7.08333330E+00	-4.15000000E-01
7.08611110E+00	-3.83038480E-01
7.08888890E+00	-3.83038480E-01
7.09166670E+00	-4.40000000E-01
7.09444440E+00	-4.76961520E-01
7.09722220E+00	-4.91961520E-01
7.10000000E+00	-4.45000000E-01
7.10277780E+00	-4.08038480E-01
7.10555560E+00	-4.03038480E-01
7.10833330E+00	-4.55000000E-01
7.11111110E+00	-4.96961520E-01
7.11388890E+00	-5.06961520E-01
7.11666670E+00	-4.55000000E-01
7.11944440E+00	-4.08038480E-01
7.12222220E+00	-4.08038480E-01
7.12500000E+00	-4.50000000E-01
7.12777780E+00	-4.96961520E-01
7.13055560E+00	-5.01961520E-01
7.13333330E+00	-4.60000000E-01
7.13611110E+00	-4.18038480E-01
7.13888890E+00	-4.08038480E-01
7.14166670E+00	-4.70000000E-01
7.14444440E+00	-5.06961520E-01
7.14722220E+00	-5.26961520E-01
7.15000000E+00	-4.75000000E-01
7.15277780E+00	-4.38038480E-01
7.15555560E+00	-4.43038480E-01
7.15833330E+00	-4.85000000E-01
7.16111110E+00	-5.41961520E-01
7.16388890E+00	-5.41961520E-01
7.16666670E+00	-5.00000000E-01
7.16944440E+00	-4.58038480E-01
7.17222220E+00	-4.63038480E-01
7.17500000E+00	-5.10000000E-01
7.17777780E+00	-5.41961520E-01
7.18055560E+00	-5.41961520E-01
7.18333330E+00	-4.90000000E-01
7.18611110E+00	-4.38038480E-01
7.18888890E+00	-4.28038480E-01
7.19166670E+00	-4.50000000E-01
7.19444440E+00	-4.91961520E-01
7.19722220E+00	-4.81961520E-01
7.20000000E+00	-4.25000000E-01
7.20277780E+00	-3.73038480E-01
7.20555560E+00	-3.48038480E-01
7.20833330E+00	-3.85000000E-01
7.21111110E+00	-4.11961520E-01
7.21388890E+00	-4.01961520E-01
7.21666670E+00	-3.65000000E-01
7.21944440E+00	-3.13038480E-01
7.22222220E+00	-3.08038480E-01
7.22500000E+00	-3.45000000E-01
7.22777780E+00	-3.81961520E-01
7.23055560E+00	-3.81961520E-01
7.23333330E+00	-3.40000000E-01
7.23611110E+00	-2.88038480E-01
7.23888890E+00	-2.83038480E-01
7.24166670E+00	-3.35000000E-01
7.24444440E+00	-3.76961520E-01
7.24722220E+00	-3.81961520E-01
7.25000000E+00	-3.30000000E-01
7.25277780E+00	-2.93038480E-01
7.25555560E+00	-2.83038480E-01
7.25833330E+00	-3.30000000E-01
7.26111110E+00	-3.71961520E-01
7.26388890E+00	-3.76961520E-01
7.26666670E+00	-3.45000000E-01
7.26944440E+00	-2.83038480E-01
7.27222220E+00	-2.73038480E-01
7.27500000E+00	-3.15000000E-01
7.27777780E+00	-3.66961520E-01
7.28055560E+00	-3.76961520E-01
7.28333330E+00	-3.25000000E-01
7.28611110E+00	-2.88038480E-01
7.28888890E+00	-2.83038480E-01
7.29166670E+00	-3.30000000E-01
7.29444440E+00	-3.81961520E-01
7.29722220E+00	-3.81961520E-01
7.30000000E+00	-3.30000000E-01
7.30277780E+00	-2.93038480E-01
7.30555560E+00	-3.03038480E-01
7.30833330E+00	-3.45000000E-01
7.31111110E+00	-3.91961520E-01
7.31388890E+00	-4.06961520E-01
7.31666670E+00	-3.55000000E-01
7.31944440E+00	-2.98038480E-01
7.32222220E+00	-2.88038480E-01
7.32500000E+00	-3.40000000E-01
7.32777780E+00	-3.81961520E-01
7.33055560E+00	-3.81961520E-01
7.33333330E+00	-3.40000000E-01
7.33611110E+00	-2.98038480E-01
7.33888890E+00	-2.98038480E-01
7.34166670E+00	-3.40000000E-01
7.34444440E+00	-3.86961520E-01
7.34722220E+00	-3.91961520E-01
7.35000000E+00	-3.55000000E-01
7.35277780E+00	-2.98038480E-01
7.35555560E+00	-2.93038480E-01
7.35833330E+00	-3.40000000E-01
7.36111110E+00	-3.91961520E-01
7.36388890E+00	-3.91961520E-01
7.36666670E+00	-3.45000000E-01
7.36944440E+00	-3.08038480E-01
7.37222220E+00	-3.08038480E-01
7.37500000E+00	-3.50000000E-01
7.37777780E+00	-3.91961520E-01
7.38055560E+00	-3.91961520E-01
7.38333330E+00	-3.50000000E-01
7.38611110E+00	-3.08038480E-01
7.38888890E+00	-3.18038480E-01
7.39166670E+00	-3.65000000E-01
7.39444440E+00	-3.96961520E-01
7.39722220E+00	-4.01961520E-01
7.40000000E+00	-3.50000000E-01
7.40277780E+00	-3.13038480E-01
7.40555560E+00	-2.98038480E-01
7.40833330E+00	-3.45000000E-01
7.41111110E+00	-3.86961520E-01
7.41388890E+00	-3.86961520E-01
7.41666670E+00	-3.40000000E-01
7.41944440E+00	-3.03038480E-01
7.42222220E+00	-2.93038480E-01
7.42500000E+00	-3.35000000E-01
7.42777780E+00	-3.91961520E-01
7.43055560E+00	-3.81961520E-01
7.43333330E+00	-3.25000000E-01
7.43611110E+00	-2.78038480E-01
7.43888890E+00	-2.73038480E-01
7.44166670E+00	-3.25000000E-01
7.44444440E+00	-3.56961520E-01
7.44722220E+00	-3.56961520E-01
7.45000000E+00	-3.05000000E-01
7.45277780E+00	-2.53038480E-01
7.45555560E+00	-2.43038480E-01
7.45833330E+00	-2.70000000E-01
7.46111110E+00	-3.01961520E-01
7.46388890E+00	-3.06961520E-01
7.46666670E+00	-2.55000000E-01
7.46944440E+00	-1.98038480E-01
7.47222220E+00	-1.83038480E-01
7.47500000E+00	-2.15000000E-01
7.47777780E+00	-2.61961520E-01
7.48055560E+00	-2.61961520E-01
7.48333330E+00	-2.15000000E-01
7.48611110E+00	-1.83038480E-01
7.48888890E+00	-1.73038480E-01
7.49166670E+00	-2.25000000E-01
7.49444440E+00	-2.66961520E-01
7.49722220E+00	-2.71961520E-01
7.50000000E+00	-2.35000000E-01
7.50277780E+00	-1.83038480E-01
7.50555560E+00	-1.83038480E-01
7.50833330E+00	-2.30000000E-01
7.51111110E+00	-2.76961520E-01
7.51388890E+00	-2.66961520E-01
7.51666670E+00	-2.10000000E-01
7.51944440E+00	-1.68038480E-01
7.52222220E+00	-1.43038480E-01
7.52500000E+00	-2.05000000E-01
7.52777780E+00	-2.76961520E-01
7.53055560E+00	-3.01961520E-01
7.53333330E+00	-2.70000000E-01
7.53611110E+00	-2.23038480E-01
7.53888890E+00	-2.33038480E-01
7.54166670E+00	-2.90000000E-01
7.54444440E+00	-3.41961520E-01
7.54722220E+00	-3.51961520E-01
7.55000000E+00	-3.10000000E-01
7.55277780E+00	-2.83038480E-01
7.55555560E+00	-2.83038480E-01
7.55833330E+00	-3.40000000E-01
7.56111110E+00	-3.91961520E-01
7.56388890E+00	-3.96961520E-01
7.56666670E+00	-3.40000000E-01
7.56944440E+00	-2.98038480E-01
7.57222220E+00	-3.03038480E-01
7.57500000E+00	-3.60000000E-01
7.57777780E+00	-4.01961520E-01
7.58055560E+00	-4.06961520E-01
7.58333330E+00	-3.55000000E-01
7.58611110E+00	-3.18038480E-01
7.58888890E+00	-3.13038480E-01
7.59166670E+00	-3.60000000E-01
7.59444440E+00	-4.11961520E-01
7.59722220E+00	-4.01961520E-01
7.60000000E+00	-3.65000000E-01
7.60277780E+00	-3.18038480E-01
7.60555560E+00	-3.23038480E-01
7.60833330E+00	-3.60000000E-01
7.61111110E+00	-4.01961520E-01
7.61388890E+00	-4.06961520E-01
7.61666670E+00	-3.55000000E-01
7.61944440E+00	-3.33038480E-01
7.62222220E+00	-3.58038480E-01
7.62500000E+00	-4.35000000E-01
7.62777780E+00	-5.11961520E-01
7.63055560E+00	-5.26961520E-01
7.63333330E+00	-5.10000000E-01
7.63611110E+00	-5.03038480E-01
7.63888890E+00	-5.13038480E-01
7.64166670E+00	-4.90000000E-01
7.64444440E+00	-4.21961520E-01
7.64722220E+00	-2.81961520E-01
7.65000000E+00	-9.50000000E-02
7.65277780E+00	1.56961520E-01
7.65555560E+00	4.36961520E-01
7.65833330E+00	6.45000000E-01
7.66111110E+00	7.48038480E-01
7.66388890E+00	7.83038480E-01
7.66666670E+00	7.20000000E-01
7.66944440E+00	4.76961520E-01
7.67222220E+00	1.01961520E-01
7.67500000E+00	-2.70000000E-01
7.67777780E+00	-4.96961520E-01
7.68055560E+00	-5.61961520E-01
7.68333330E+00	-5.10000000E-01
7.68611110E+00	-4.18038480E-01
7.68888890E+00	-3.78038480E-01
7.69166670E+00	-3.90000000E-01
7.69444440E+00	-4.36961520E-01
7.69722220E+00	-4.41961520E-01
7.70000000E+00	-3.95000000E-01
7.70277780E+00	-3.53038480E-01
7.70555560E+00	-3.53038480E-01
7.70833330E+00	-4.00000000E-01
7.71111110E+00	-4.51961520E-01
7.71388890E+00	-4.41961520E-01
7.71666670E+00	-4.05000000E-01
7.71944440E+00	-3.58038480E-01
7.72222220E+00	-3.58038480E-01
7.72500000E+00	-4.00000000E-01
7.72777780E+00	-4.46961520E-01
7.73055560E+00	-4.51961520E-01
7.73333330E+00	-4.15000000E-01
7.73611110E+00	-3.63038480E-01
7.73888890E+00	-3.58038480E-01
7.74166670E+00	-3.95000000E-01
7.74444440E+00	-4.36961520E-01
7.74722220E+00	-4.41961520E-01
7.75000000E+00	-3.95000000E-01
7.75277780E+00	-3.58038480E-01
7.75555560E+00	-3.58038480E-01
7.75833330E+00	-4.10000000E-01
7.76111110E+00	-4.46961520E-01
7.76388890E+00	-4.61961520E-01
7.76666670E+00	-4.00000000E-01
7.76944440E+00	-3.68038480E-01
7.77222220E+00	-3.68038480E-01
7.77500000E+00	-4.00000000E-01
7.77777780E+00	-4.41961520E-01
7.78055560E+00	-4.46961520E-01
7.78333330E+00	-3.90000000E-01
7.78611110E+00	-3.48038480E-01
7.78888890E+00	-3.48038480E-01
7.79166670E+00	-3.90000000E-01
7.79444440E+00	-4.31961520E-01
7.79722220E+00	-4.46961520E-01
7.80000000E+00	-4.00000000E-01
7.80277780E+00	-3.58038480E-01
7.80555560E+00	-3.53038480E-01
7.80833330E+00	-3.95000000E-01
7.81111110E+00	-4.46961520E-01
7.81388890E+00	-4.51961520E-01
7.81666670E+00	-3.95000000E-01
7.81944440E+00	-3.63038480E-01
7.82222220E+00	-3.48038480E-01
7.82500000E+00	-4.00000000E-01
7.82777780E+00	-4.41961520E-01
7.83055560E+00	-4.36961520E-01
7.83333330E+00	-3.95000000E-01
7.83611110E+00	-3.63038480E-01
7.83888890E+00	-3.58038480E-01
7.84166670E+00	-3.95000000E-01
7.84444440E+00	-4.31961520E-01
7.84722220E+00	-4.36961520E-01
7.85000000E+00	-3.85000000E-01
7.85277780E+00	-3.43038480E-01
7.85555560E+00	-3.38038480E-01
7.85833330E+00	-3.80000000E-01
7.86111110E+00	-4.26961520E-01
7.86388890E+00	-4.31961520E-01
7.86666670E+00	-3.85000000E-01
7.86944440E+00	-3.43038480E-01
7.87222220E+00	-3.43038480E-01
7.87500000E+00	-3.90000000E-01
7.87777780E+00	-4.26961520E-01
7.88055560E+00	-4.36961520E-01
7.88333330E+00	-3.95000000E-01
7.88611110E+00	-3.53038480E-01
7.88888890E+00	-3.58038480E-01
7.89166670E+00	-4.05000000E-01
7.89444440E+00	-4.36961520E-01
7.89722220E+00	-4.56961520E-01
7.90000000E+00	-4.10000000E-01
7.90277780E+00	-3.68038480E-01
7.90555560E+00	-3.53038480E-01
7.90833330E+00	-4.10000000E-01
7.91111110E+00	-4.46961520E-01
7.91388890E+00	-4.46961520E-01
7.91666670E+00	-4.05000000E-01
7.91944440E+00	-3.73038480E-01
7.92222220E+00	-3.58038480E-01
7.92500000E+00	-4.05000000E-01
7.92777780E+00	-4.51961520E-01
7.93055560E+00	-4.51961520E-01
7.93333330E+00	-4.10000000E-01
7.93611110E+00	-3.68038480E-01
7.93888890E+00	-3.63038480E-01
7.94166670E+00	-3.95000000E-01
7.94444440E+00	-4.36961520E-01
7.94722220E+00	-4.21961520E-01
7.95000000E+00	-3.75000000E-01
7.95277780E+00	-3.18038480E-01
7.95555560E+00	-3.03038480E-01
7.95833330E+00	-3.30000000E-01
7.96111110E+00	-3.66961520E-01
7.96388890E+00	-3.61961520E-01
7.96666670E+00	-3.15000000E-01
7.96944440E+00	-2.83038480E-01
7.97222220E+00	-2.53038480E-01
7.97500000E+00	-2.90000000E-01
7.97777780E+00	-3.41961520E-01
7.98055560E+00	-3.41961520E-01
7.98333330E+00	-2.80000000E-01
7.98611110E+00	-2.33038480E-01
7.98888890E+00	-2.28038480E-01
7.99166670E+00	-2.65000000E-01
7.99444440E+00	-3.16961520E-01
7.99722220E+00	-3.21961520E-01
8.00000000E+00	-2.60000000E-01
8.00277780E+00	-2.13038480E-01
8.00555560E+00	-2.08038480E-01
8.00833330E+00	-2.50000000E-01
8.01111110E+00	-2.91961520E-01
8.01388890E+00	-2.96961520E-01
8.01666670E+00	-2.45000000E-01
8.01944440E+00	-2.03038480E-01
8.02222220E+00	-2.13038480E-01
8.02500000E+00	-2.55000000E-01
8.02777780E+00	-3.06961520E-01
8.03055560E+00	-3.06961520E-01
8.03333330E+00	-2.60000000E-01
8.03611110E+00	-2.13038480E-01
8.03888890E+00	-2.23038480E-01
8.04166670E+00	-2.60000000E-01
8.04444440E+00	-3.01961520E-01
8.04722220E+00	-3.06961520E-01
8.05000000E+00	-2.65000000E-01
8.05277780E+00	-2.08038480E-01
8.05555560E+00	-2.18038480E-01
8.05833330E+00	-2.55000000E-01
8.06111110E+00	-3.01961520E-01
8.06388890E+00	-3.06961520E-01
8.06666670E+00	-2.65000000E-01
8.06944440E+00	-2.08038480E-01
8.07222220E+00	-2.13038480E-01
8.07500000E+00	-2.60000000E-01
8.07777780E+00	-3.06961520E-01
8.08055560E+00	-3.06961520E-01
8.08333330E+00	-2.60000000E-01
8.08611110E+00	-2.18038480E-01
8.08888890E+00	-2.28038480E-01
8.09166670E+00	-2.70000000E-01
8.09444440E+00	-3.16961520E-01
8.09722220E+00	-3.11961520E-01
8.10000000E+00	-2.80000000E-01
8.10277780E+00	-2.28038480E-01
8.10555560E+00	-2.38038480E-01
8.10833330E+00	-2.75000000E-01
8.11111110E+00	-3.21961520E-01
8.11388890E+00	-3.16961520E-01
8.11666670E+00	-2.80000000E-01
8.11944440E+00	-2.38038480E-01
8.12222220E+00	-2.33038480E-01
8.12500000E+00	-2.80000000E-01
8.12777780E+00	-3.26961520E-01
8.13055560E+00	-3.36961520E-01
8.13333330E+00	-2.80000000E-01
8.13611110E+00	-2.38038480E-01
8.13888890E+00	-2.28038480E-01
8.14166670E+00	-2.80000000E-01
8.14444440E+00	-3.16961520E-01
8.14722220E+00	-3.16961520E-01
8.15000000E+00	-2.80000000E-01
8.15277780E+00	-2.38038480E-01
8.15555560E+00	-2.43038480E-01
8.15833330E+00	-2.80000000E-01
8.16111110E+00	-3.11961520E-01
8.16388890E+00	-3.16961520E-01
8.16666670E+00	-2.75000000E-01
8.16944440E+00	-2.38038480E-01
8.17222220E+00	-2.38038480E-01
8.17500000E+00	-2.85000000E-01
8.17777780E+00	-3.21961520E-01
8.18055560E+00	-3.26961520E-01
8.18333330E+00	-2.75000000E-01
8.18611110E+00	-2.38038480E-01
8.18888890E+00	-2.18038480E-01
8.19166670E+00	-2.55000000E-01
8.19444440E+00	-2.86961520E-01
8.19722220E+00	-2.91961520E-01
8.20000000E+00	-2.45000000E-01
8.20277780E+00	-2.08038480E-01
8.20555560E+00	-2.03038480E-01
8.20833330E+00	-2.35000000E-01
8.21111110E+00	-2.71961520E-01
8.21388890E+00	-2.66961520E-01
8.21666670E+00	-2.20000000E-01
8.21944440E+00	-1.63038480E-01
8.22222220E+00	-1.63038480E-01
8.22500000E+00	-1.95000000E-01
8.22777780E+00	-2.31961520E-01
8.23055560E+00	-2.21961520E-01
8.23333330E+00	-1.65000000E-01
8.23611110E+00	-1.33038480E-01
8.23888890E+00	-1.13038480E-01
8.24166670E+00	-1.50000000E-01
8.24444440E+00	-1.86961520E-01
8.24722220E+00	-2.11961520E-01
8.25000000E+00	-1.70000000E-01
8.25277780E+00	-1.23038480E-01
8.25555560E+00	-1.28038480E-01
8.25833330E+00	-1.80000000E-01
8.26111110E+00	-2.11961520E-01
8.26388890E+00	-2.16961520E-01
8.26666670E+00	-1.70000000E-01
8.26944440E+00	-1.28038480E-01
8.27222220E+00	-1.23038480E-01
8.27500000E+00	-1.50000000E-01
8.27777780E+00	-1.96961520E-01
8.28055560E+00	-1.81961520E-01
8.28333330E+00	-1.55000000E-01
8.28611110E+00	-1.48038480E-01
8.28888890E+00	-1.73038480E-01
8.29166670E+00	-2.30000000E-01
8.29444440E+00	-2.66961520E-01
8.29722220E+00	-2.86961520E-01
8.30000000E+00	-2.45000000E-01
8.30277780E+00	-2.23038480E-01
8.30555560E+00	-2.33038480E-01
8.30833330E+00	-2.90000000E-01
8.31111110E+00	-3.41961520E-01
8.31388890E+00	-3.31961520E-01
8.31666670E+00	-2.85000000E-01
8.31944440E+00	-2.48038480E-01
8.32222220E+00	-2.53038480E-01
8.32500000E+00	-3.00000000E-01
8.32777780E+00	-3.46961520E-01
8.33055560E+00	-3.51961520E-01
8.33333330E+00	-3.05000000E-01
8.33611110E+00	-2.73038480E-01
8.33888890E+00	-2.73038480E-01
8.34166670E+00	-3.15000000E-01
8.34444440E+00	-3.61961520E-01
8.34722220E+00	-3.61961520E-01
8.35000000E+00	-3.10000000E-01
8.35277780E+00	-2.83038480E-01
8.35555560E+00	-2.68038480E-01
8.35833330E+00	-3.10000000E-01
8.36111110E+00	-3.56961520E-01
8.36388890E+00	-3.66961520E-01
8.36666670E+00	-3.15000000E-01
8.36944440E+00	-2.73038480E-01
8.37222220E+00	-2.88038480E-01
8.37500000E+00	-3.50000000E-01
8.37777780E+00	-4.31961520E-01
8.38055560E+00	-4.66961520E-01
8.38333330E+00	-4.30000000E-01
8.38611110E+00	-3.93038480E-01
8.38888890E+00	-4.28038480E-01
8.39166670E+00	-5.25000000E-01
8.39444440E+00	-6.01961520E-01
8.39722220E+00	-5.96961520E-01
8.40000000E+00	-5.10000000E-01
8.40277780E+00	-4.13038480E-01
8.40555560E+00	-3.18038480E-01
8.40833330E+00	-2.50000000E-01
8.41111110E+00	-1.76961520E-01
8.41388890E+00	-1.96152420E-03
8.41666670E+00	2.65000000E-01
8.41944440E+00	5.61961520E-01
8.42222220E+00	7.76961520E-01
8.42500000E+00	8.55000000E-01
8.42777780E+00	8.03038480E-01
8.43055560E+00	6.48038480E-01
8.43333330E+00	4.10000000E-01
8.43611110E+00	1.06961520E-01
8.43888890E+00	-1.63038480E-01
8.44166670E+00	-3.90000000E-01
8.44444440E+00	-5.16961520E-01
8.44722220E+00	-5.46961520E-01
8.45000000E+00	-4.75000000E-01
8.45277780E+00	-3.88038480E-01
8.45555560E+00	-3.33038480E-01
8.45833330E+00	-3.55000000E-01
8.46111110E+00	-4.01961520E-01
8.46388890E+00	-4.11961520E-01
8.46666670E+00	-3.55000000E-01
8.46944440E+00	-3.13038480E-01
8.47222220E+00	-3.03038480E-01
8.47500000E+00	-3.45000000E-01
8.47777780E+00	-3.86961520E-01
8.48055560E+00	-3.86961520E-01
8.48333330E+00	-3.50000000E-01
8.48611110E+00	-3.13038480E-01
8.48888890E+00	-3.08038480E-01
8.49166670E+00	-3.50000000E-01
8.49444440E+00	-4.01961520E-01
8.49722220E+00	-4.06961520E-01
8.50000000E+00	-3.70000000E-01
8.50277780E+00	-3.13038480E-01
8.50555560E+00	-3.23038480E-01
8.50833330E+00	-3.60000000E-01
8.51111110E+00	-4.06961520E-01
8.51388890E+00	-4.11961520E-01
8.51666670E+00	-3.55000000E-01
8.51944440E+00	-3.03038480E-01
8.52222220E+00	-3.13038480E-01
8.52500000E+00	-3.60000000E-01
8.52777780E+00	-3.96961520E-01
8.53055560E+00	-4.01961520E-01
8.53333330E+00	-3.55000000E-01
8.53611110E+00	-3.23038480E-01
8.53888890E+00	-3.08038480E-01
8.54166670E+00	-3.40000000E-01
8.54444440E+00	-3.91961520E-01
8.54722220E+00	-3.86961520E-01
8.55000000E+00	-3.50000000E-01
8.55277780E+00	-3.03038480E-01
8.55555560E+00	-3.13038480E-01
8.55833330E+00	-3.55000000E-01
8.56111110E+00	-3.86961520E-01
8.56388890E+00	-3.91961520E-01
8.56666670E+00	-3.40000000E-01
8.56944440E+00	-3.08038480E-01
8.57222220E+00	-3.13038480E-01
8.57500000E+00	-3.60000000E-01
8.57777780E+00	-4.06961520E-01
8.58055560E+00	-4.11961520E-01
8.58333330E+00	-3.60000000E-01
8.58611110E+00	-3.08038480E-01
8.58888890E+00	-3.18038480E-01
8.59166670E+00	-3.50000000E-01
8.59444440E+00	-3.91961520E-01
8.59722220E+00	-3.96961520E-01
8.60000000E+00	-3.55000000E-01
8.60277780E+00	-3.03038480E-01
8.60555560E+00	-2.93038480E-01
8.60833330E+00	-3.40000000E-01
8.61111110E+00	-3.76961520E-01
8.61388890E+00	-3.76961520E-01
8.61666670E+00	-3.30000000E-01
8.61944440E+00	-2.88038480E-01
8.62222220E+00	-2.83038480E-01
8.62500000E+00	-3.30000000E-01
8.62777780E+00	-3.81961520E-01
8.63055560E+00	-3.76961520E-01
8.63333330E+00	-3.25000000E-01
8.63611110E+00	-2.93038480E-01
8.63888890E+00	-2.88038480E-01
8.64166670E+00	-3.40000000E-01
8.64444440E+00	-3.81961520E-01
8.64722220E+00	-3.76961520E-01
8.65000000E+00	-3.30000000E-01
8.65277780E+00	-2.88038480E-01
8.65555560E+00	-2.83038480E-01
8.65833330E+00	-3.30000000E-01
8.66111110E+00	-3.91961520E-01
8.66388890E+00	-3.96961520E-01
8.66666670E+00	-3.50000000E-01
8.66944440E+00	-3.08038480E-01
8.67222220E+00	-3.08038480E-01
8.67500000E+00	-3.55000000E-01
8.67777780E+00	-3.96961520E-01
8.68055560E+00	-4.11961520E-01
8.68333330E+00	-3.65000000E-01
8.68611110E+00	-3.23038480E-01
8.68888890E+00	-3.23038480E-01
8.69166670E+00	-3.60000000E-01
8.69444440E+00	-3.96961520E-01
8.69722220E+00	-4.11961520E-01
8.70000000E+00	-3.55000000E-01
8.70277780E+00	-3.13038480E-01
8.70555560E+00	-3.03038480E-01
8.70833330E+00	-3.45000000E-01
8.71111110E+00	-3.86961520E-01
8.71388890E+00	-3.81961520E-01
8.71666670E+00	-3.45000000E-01
8.71944440E+00	-2.83038480E-01
8.72222220E+00	-2.78038480E-01
8.72500000E+00	-3.15000000E-01
8.72777780E+00	-3.56961520E-01
8.73055560E+00	-3.61961520E-01
8.73333330E+00	-3.10000000E-01
8.73611110E+00	-2.58038480E-01
8.73888890E+00	-2.43038480E-01
8.74166670E+00	-2.80000000E-01
8.74444440E+00	-3.21961520E-01
8.74722220E+00	-3.06961520E-01
8.75000000E+00	-2.60000000E-01
8.75277780E+00	-2.13038480E-01
8.75555560E+00	-2.13038480E-01
8.75833330E+00	-2.45000000E-01
8.76111110E+00	-2.81961520E-01
8.76388890E+00	-2.91961520E-01
8.76666670E+00	-2.45000000E-01
8.76944440E+00	-2.08038480E-01
8.77222220E+00	-2.03038480E-01
8.77500000E+00	-2.45000000E-01
8.77777780E+00	-2.86961520E-01
8.78055560E+00	-2.81961520E-01
8.78333330E+00	-2.35000000E-01
8.78611110E+00	-1.93038480E-01
8.78888890E+00	-1.88038480E-01
8.79166670E+00	-2.30000000E-01
8.79444440E+00	-2.81961520E-01
8.79722220E+00	-2.91961520E-01
8.80000000E+00	-2.35000000E-01
8.80277780E+00	-1.98038480E-01
8.80555560E+00	-1.88038480E-01
8.80833330E+00	-2.35000000E-01
8.81111110E+00	-2.76961520E-01
8.81388890E+00	-2.86961520E-01
8.81666670E+00	-2.50000000E-01
8.81944440E+00	-1.93038480E-01
8.82222220E+00	-2.08038480E-01
8.82500000E+00	-2.45000000E-01
8.82777780E+00	-2.96961520E-01
8.83055560E+00	-2.96961520E-01
8.83333330E+00	-2.65000000E-01
8.83611110E+00	-2.18038480E-01
8.83888890E+00	-2.18038480E-01
8.84166670E+00	-2.60000000E-01
8.84444440E+00	-3.01961520E-01
8.84722220E+00	-2.96961520E-01
8.85000000E+00	-2.75000000E-01
8.85277780E+00	-2.18038480E-01
8.85555560E+00	-2.18038480E-01
8.85833330E+00	-2.70000000E-01
8.86111110E+00	-3.01961520E-01
8.86388890E+00	-3.16961520E-01
8.86666670E+00	-2.65000000E-01
8.86944440E+00	-2.28038480E-01
8.87222220E+00	-2.13038480E-01
8.87500000E+00	-2.75000000E-01
8.87777780E+00	-3.06961520E-01
8.88055560E+00	-3.16961520E-01
8.88333330E+00	-2.70000000E-01
8.88611110E+00	-2.33038480E-01
8.88888890E+00	-2.33038480E-01
